##TITLE=No title given
##JCAMP-DX=5.00 $$ WebMO output
##DATA TYPE=IR SPECTRUM
##DATA CLASS=XYDATA
##DATE=Thu Oct 17 19:27:58 GMT-400 2019
##ORIGIN=WebMO
##OWNER=public domain
##SPECTROMETER/DATA SYSTEM=computed
##XUNITS=1/CM
##YUNITS=ARBITRARY UNITS
##XFACTOR=1.0
##YFACTOR=1.0
##FIRSTX=62.59678600000001
##LASTX=3973.9831984581356
##FIRSTY=0
##NPOINTS=2000
##XYDATA=(X++(Y..Y))
62.59678600000001 0
64.553457542 0
66.510129084 0
68.466800626 0
70.42347216799999 0
72.38014370999998 0
74.33681525199998 0
76.29348679399997 0
78.25015833599997 0
80.20682987799997 0
82.16350141999996 0
84.12017296199996 0
86.07684450399995 0
88.03351604599995 0
89.99018758799994 0
91.94685912999994 0
93.90353067199993 0
95.86020221399993 0
97.81687375599992 0
99.77354529799992 0
101.73021683999991 0
103.6868883819999 0
105.6435599239999 0
107.6002314659999 0
109.55690300799989 0
111.51357454999989 0
113.47024609199988 0
115.42691763399988 0
117.38358917599987 0
119.34026071799987 0
121.29693225999986 0
123.25360380199986 0
125.21027534399985 0
127.16694688599985 0
129.12361842799984 0
131.08028996999985 0
133.03696151199986 0
134.99363305399987 0
136.95030459599988 0
138.9069761379999 0
140.8636476799999 0
142.8203192219999 0
144.77699076399992 0
146.73366230599993 0
148.69033384799994 0
150.64700538999995 0
152.60367693199996 0
154.56034847399997 0
156.51702001599998 0
158.47369155799998 0
160.4303631 0
162.387034642 0
164.343706184 0
166.30037772600002 0
168.25704926800003 0
170.21372081000004 0
172.17039235200005 0
174.12706389400006 0
176.08373543600007 0
178.04040697800008 0
179.9970785200001 0
181.9537500620001 0
183.9104216040001 0
185.86709314600012 0
187.82376468800013 0
189.78043623000013 0
191.73710777200014 0
193.69377931400015 0
195.65045085600016 0
197.60712239800017 0
199.56379394000018 0
201.5204654820002 0
203.4771370240002 0
205.4338085660002 0
207.39048010800022 0
209.34715165000023 0
211.30382319200024 0
213.26049473400025 0
215.21716627600026 0
217.17383781800027 0
219.13050936000027 0
221.08718090200028 0
223.0438524440003 0.07921158620689656
225.0005239860003 0.08050998147288355
226.9571955280003 0.0818404866759253
228.91386707000032 0.08320416676680212
230.87053861200033 0.09322392420559625
232.82721015400034 0.09479865274655835
234.78388169600035 0.09641352154314682
236.74055323800036 0.09806990302956911
238.69722478000037 0.09976922864654966
240.65389632200038 0.10151299190371854
242.6105678640004 0.10330275162851678
244.5672394060004 0.10514013541467522
246.5239109480004 0.10702684328436068
248.48058249000042 0.10896465157920697
250.43725403200042 0.11095541709667647
252.39392557400043 0.11300108148953404
254.35059711600044 0.11510367594767296
256.30726865800045 0.11726532618312609
258.26394020000043 0.11948825774083331
260.2206117420004 0.12177480165963758
262.1772832840004 0.12412740051006409
264.1339548260004 0.12654861483771293
266.09062636800036 0.1290411300435932
268.04729791000034 0.13160776373546487
270.0039694520003 0.13425147358725878
271.9606409940003 0.13697536574694777
273.9173125360003 0.13978270383687189
275.87398407800026 0.14267691859451476
277.83065562000024 0.14566161820612972
279.7873271620002 0.1487405993904638
281.7439987040002 0.15191785929518087
283.7006702460002 0.1551976082744969
285.65734178800017 0.15858428362307542
287.61401333000015 0.16208256434846377
289.57068487200013 0.16569738707236112
291.5273564140001 0.16943396315988987
293.4840279560001 0.1732977971859022
295.4406994980001 0.17729470685830287
297.39737104000005 0.1814308445305531
299.35404258200003 0.18571272044908196
301.310714124 0.19014722789644772
303.267385666 0.1947416704079623
305.224057208 0.1995037912583322
307.18072874999996 0.20444180543594895
309.13740029199994 0.20956443434605526
311.0940718339999 0.2148809435104713
313.0507433759999 0.22040118356125654
315.0074149179999 0.22613563485905366
316.96408645999986 0.23209545610440804
318.92075800199984 0.23829253735266243
320.8774295439998 0.24473955789075408
322.8341010859998 0.25145004948815364
324.7907726279998 0.25843846559517836
326.74744416999977 0.2657202571309938
328.70411571199975 0.27331195558198923
330.66078725399973 0.2812312642202355
332.6174587959997 0.28949715835301215
334.5741303379997 0.29812999562978376
336.5308018799997 0.3071516375646645
338.48747342199965 0.3165855835828864
340.44414496399963 0.32645711907200264
342.4008165059996 0.3367934791159963
344.3574880479996 0.34762402981717083
346.3141595899996 0.35898046937142924
348.27083113199956 0.3708970513629249
350.22750267399954 0.3834108330906731
352.1841742159995 0.39656195214035733
354.1408457579995 0.410393934878462
356.0975172999995 0.4249540410839048
358.05418884199946 0.44029364955750455
360.01086038399944 0.4564686902772141
361.9675319259994 0.47354012951537877
363.9242034679994 0.4915745153250894
365.8808750099994 0.5106445919618798
367.83754655199937 0.5308299931655467
369.79421809399935 0.5522180258216374
371.75088963599933 0.5749045573973162
373.7075611779993 0.5989950227546158
375.6642327199993 0.6246055685485509
377.62090426199927 0.6518643564935014
379.57757580399925 0.6809130504185289
381.53424734599923 0.711908516337824
383.4909188879992 0.7450247698633903
385.4475904299992 0.7804552113335129
387.4042619719992 0.8184151961992019
389.36093351399916 0.8591449967073002
391.31760505599914 0.902913220980363
393.2742765979991 0.9500207674877011
395.2309481399991 1.0008054069246457
397.1876196819991 1.0556470999806895
399.14429122399906 1.114974178689827
401.10096276599904 1.1792705412818916
403.057634307999 1.2490840358408788
405.014305849999 1.3250362365399289
406.970977391999 1.4078338472461585
408.92764893399897 1.4982819996023262
410.88432047599895 1.597299743757145
412.84099201799893 1.7059380550999799
414.7976635599989 1.8254006916335537
416.7543351019989 1.9570682205347707
418.71100664399887 2.1025254669574154
420.66767818599885 2.263592487706897
422.62434972799883 2.442358880706149
424.5810212699988 2.6412207199786635
426.5376928119988 2.862918519268598
428.4943643539988 3.1105731697081254
430.45103589599876 3.387714464394296
432.40770743799874 3.6982931823505063
434.3643789799987 4.046662171832938
436.3210505219987 4.437503731818278
438.2777220639987 4.875669124409232
440.23439360599866 5.365880934486688
442.19106514799864 5.912231200769159
444.1477366899986 6.517391859773505
446.1044082319986 7.181475828761282
448.0610797739986 7.9003296631256905
450.01775131599857 8.663685686597443
451.97442285799855 9.452881233840458
453.9310943999985 10.239098187971681
455.8877659419985 10.982917316124365
457.8444374839985 11.636393048214059
459.80110902599847 12.148504314654334
461.75778056799845 12.473651513107836
463.71445210999843 12.581086776836079
465.6711236519984 12.461889313455794
467.6277951939984 12.13060424699183
469.5844667359984 11.621022975453483
471.54113827799836 10.978213929773949
473.49780981999834 10.25000601144374
475.4544813619983 9.480354268930299
477.4111529039983 8.705474043118814
479.3678244459983 7.952456066481172
481.32449598799826 7.2396052109916305
483.28116752999824 6.577742076656666
485.2378390719982 5.9718776666817
487.1945106139982 5.422870063662428
489.1511821559982 4.92884800504284
491.10785369799817 4.4863203389254975
493.06452523999815 4.090976222878071
495.0211967819981 3.7382240805036293
496.9778683239981 3.423530400387551
498.9345398659981 3.142615687786224
500.89121140799807 2.891554143293339
502.84788294999805 2.6668117478598754
504.80455449199803 2.4652470572808354
506.761226033998 2.284090962737557
508.717897575998 2.120915864878418
510.674569117998 1.973600715179423
512.631240659998 1.8402957317999074
514.5879122019979 1.7193888965193802
516.5445837439979 1.6094752780541652
518.5012552859979 1.5093295857634375
520.4579268279979 1.417881985946344
522.4145983699979 1.3341970102735987
524.3712699119978 1.2574552869526212
526.3279414539978 1.186937788079343
528.2846129959978 1.122012284874325
530.2412845379978 1.0621217197850545
532.1979560799978 1.0067742308429086
534.1546276219977 0.9555345933389722
536.1112991639977 0.9080168735083982
538.0679707059977 0.8638781167251672
540.0246422479977 0.822812917882003
541.9813137899977 0.8267357783697744
543.9379853319977 0.7917204400678478
545.8946568739976 0.7590611808780541
547.8513284159976 0.728562544311872
549.8079999579976 0.7000488027639193
551.7646714999976 0.6733616803690526
553.7213430419976 0.6483583699321223
555.6780145839975 0.6249098026068649
557.6346861259975 0.6028991351932765
559.5913576679975 0.5822204251492201
561.5480292099975 0.5627774678244936
563.5047007519975 0.5444827741534495
565.4613722939974 0.5272566701948268
567.4180438359974 0.5110265025765752
569.3747153779974 0.49572593616627697
571.3313869199974 0.4812943322089476
573.2880584619974 0.46767619680761846
575.2447300039973 0.45482069101349215
577.2014015459973 0.4426811949795442
579.1580730879973 0.43121491964597614
581.1147446299973 0.4203825602945481
583.0714161719973 0.4101479870538668
585.0280877139973 0.40047796807794256
586.9847592559972 0.39134192167155246
588.9414307979972 0.38271169411142897
590.8981023399972 0.3745613603232785
592.8547738819972 0.3668670449305678
594.8114454239972 0.3596067614999484
596.7681169659971 0.35276026807690825
598.7247885079971 0.3463089373395291
600.6814600499971 0.34023563990303163
602.6381315919971 0.33452463948728894
604.5948031339971 0.3291614988173153
606.551474675997 0.3241329952659697
608.508146217997 0.3194270453714294
610.464817759997 0.3150326374717103
612.421489301997 0.31093977179663956
614.378160843997 0.30713940744600093
616.334832385997 0.30362341576262286
618.2915039279969 0.3003845396823387
620.2481754699969 0.29741635871025796
622.2048470119969 0.2947132592357313
624.1615185539969 0.29227040995774745
626.1181900959969 0.29008374224912
628.0748616379968 0.288149935342385
630.0315331799968 0.28646640627335557
631.9882047219968 0.2850313045699462
633.9448762639968 0.2838435117239661
635.9015478059968 0.2829026455311149
637.8582193479967 0.2822090694273331
639.8148908899967 0.28176390698409665
641.7715624319967 0.2815690617445395
643.7282339739967 0.28162724257537386
645.6849055159967 0.28194199465859426
647.6415770579966 0.2825177361236473
649.5982485999966 0.28335980008129524
651.5549201419966 0.2844744813982293
653.5115916839966 0.2858690868481064
655.4682632259966 0.28755198614966876
657.4249347679965 0.28953265966682684
659.3816063099965 0.29182173596840366
661.3382778519965 0.2944310087997968
663.2949493939965 0.2973734182138532
665.2516209359965 0.3006629749927705
667.2082924779965 0.3043146024608145
669.1649640199964 0.30834386880255416
671.1216355619964 0.31276659295387077
673.0783071039964 0.3175983392274509
675.0349786459964 0.32285388359790046
676.9916501879964 0.328546844414724
678.9483217299963 0.33468980035860885
680.9049932719963 0.3412952917497677
682.8616648139963 0.3483779861584899
684.8183363559963 0.35595788156885233
686.7750078979963 0.364063810841945
688.7316794399962 0.37273607769349054
690.6883509819962 0.3876567545694886
692.6450225239962 0.39772266267296036
694.6016940659962 0.40854548903184434
696.5583656079962 0.42020361388374333
698.5150371499961 0.43278004695295763
700.4717086919961 0.4463621710237201
702.4283802339961 0.4610425789025272
704.3850517759961 0.39858102080162566
706.3417233179961 0.41701141848080087
708.298394859996 0.4368371492528508
710.255066401996 0.4581913397113
712.211737943996 0.4726957947491957
714.168409485996 0.49770681266866473
716.125081027996 0.5247464916915264
718.081752569996 0.554027049652373
720.0384241119959 0.6026644923619171
721.9950956539959 0.6374560338996869
723.9517671959959 0.6753171774343414
725.9084387379959 0.7166004086764604
727.8651102799959 0.7617077432663861
729.8217818219958 0.8110985086751374
731.7784533639958 0.865298388552824
733.7351249059958 0.924909896130832
735.6917964479958 0.9906244324181108
737.6484679899958 1.0632360480555956
739.6051395319957 1.1436569460829038
741.5618110739957 1.2329346069220533
743.5184826159957 1.3322701403613362
745.4751541579957 1.4430370010745348
747.4318256999957 1.5667984367042416
749.3884972419957 1.705320812216716
751.3451687839956 1.860578045512215
753.3018403259956 2.0347394937042393
755.2585118679956 2.230129377176073
757.2151834099956 2.4491398552122554
759.1718549519956 2.694072023971683
761.1285264939955 2.966869946876638
763.0851980359955 3.2687045651546054
765.0418695779955 3.599362484262431
766.9985411199955 3.956410160812779
768.9552126619955 4.334154765337471
770.9118842039954 4.722530508577374
772.8685557459954 5.106213694810459
774.8252272879954 5.4644763447862665
776.7818988299954 5.772404304389666
778.7385703719954 6.003921510680182
780.6952419139953 6.136411690310615
782.6519134559953 6.15575673277168
784.6085849979953 6.05991908384519
786.5652565399953 5.859485401296489
788.5219280819953 5.574916187819969
790.4785996239953 5.231753085442146
792.4352711659952 4.855693150927352
794.3919427079952 4.46899633901251
796.3486142499952 4.088725974474783
798.3052857919952 3.7265328466163665
800.2619573339952 3.3893717756537254
802.2186288759951 3.0805858632512275
804.1753004179951 2.800989933508506
806.1319719599951 2.5497763736792614
808.0886435019951 2.325195335193893
810.0453150439951 2.125027619954693
812.001986585995 1.9468929506207475
813.958658127995 1.7884384399427689
815.915329669995 1.647445021116374
817.872001211995 1.5218803676037194
819.828672753995 1.409918460031053
821.785344295995 1.309939392418545
823.7420158379949 1.2205182514869308
825.6986873799949 1.1404086223984629
827.6553589219949 1.0685240916331742
829.6120304639949 1.0039197053763116
831.5687020059949 0.9457744503239386
833.5253735479948 0.893375275245806
835.4820450899948 0.8461028441171794
837.4387166319948 0.8034190239640497
839.3953881739948 0.7648560097535868
841.3520597159948 0.7300069406427647
843.3087312579947 0.6985178450921007
845.2654027999947 0.6700807532772669
847.2220743419947 0.6444278256017096
849.1787458839947 0.6213263609367341
851.1354174259947 0.6005745645699341
853.0920889679946 0.7010592134706239
855.0487605099946 0.686459272277416
857.0054320519946 0.6738043191384369
858.9621035939946 0.6629873390815614
860.9187751359946 0.6539194003410345
862.8754466779945 0.6465282921458166
864.8321182199945 0.640757469693865
866.7887897619945 0.6365652821267058
868.7454613039945 0.633924466543784
870.7021328459945 0.6328218977673319
872.6588043879945 0.6332585898143829
874.6154759299944 0.6352499509379614
876.5721474719944 0.638826299684062
878.5288190139944 0.644033654594926
880.4854905559944 0.6509348147374354
882.4421620979944 0.6596107516695248
884.3988336399943 0.6701623349147608
886.3555051819943 0.6827124110299909
888.3121767239943 0.6974082485163429
890.2688482659943 0.7144243432780619
892.2255198079943 0.7339655459944242
894.1821913499942 0.756270414227021
896.1388628919942 0.781614594067628
898.0955344339942 0.8103138775478816
900.0522059759942 0.8427263328159621
902.0088775179942 0.879252523730443
903.9655490599941 0.9203322745607659
905.9222206019941 0.9664356450395005
907.8788921439941 1.0180447407011555
909.8355636859941 1.07562176595441
911.7922352279941 1.1395576266858498
913.748906769994 1.2100951380789255
915.705578311994 1.2872229510492827
917.662249853994 1.370543050517137
919.618921395994 1.459128963152064
921.575592937994 1.5514149841074272
923.532264479994 1.645184111342481
925.4889360219939 1.7377375582609322
927.4456075639939 1.826277448140387
929.4022791059939 1.9086304956075582
931.3589506479939 1.9837570859566966
933.3156221899939 2.052319128313843
935.2722937319938 2.116691225367026
937.2289652739938 2.1805300732678714
939.1856368159938 2.248028543930802
941.1423083579938 2.3230919711334974
943.0989798999938 2.408614293904571
945.0556514419937 2.505908958338099
947.0123229839937 2.6142644752698345
948.9689945259937 2.7305945994576812
950.9256660679937 2.84922907738184
952.8823376099937 2.961999741468638
954.8390091519937 3.058848742144585
956.7956806939936 3.1291291876751384
958.7523522359936 3.163517142828113
960.7090237779936 3.156068352831893
962.6656953199936 3.1056765656330585
964.6223668619936 3.016305350305384
966.5790384039935 2.8958950996869772
968.5357099459935 2.7544486136328166
970.4923814879935 2.6020608538933265
972.4490530299935 2.447480578820424
974.4057245719935 2.297404526330657
976.3623961139934 2.1563888440797045
978.3190676559934 2.027133556117824
980.2757391979934 1.9109142830661388
982.2324107399934 1.8080138827073675
984.1890822819934 1.7180833207665978
986.1457538239933 1.6404125610707738
988.1024253659933 1.5741187990886665
990.0590969079933 1.518269107549148
992.0157684499933 1.4719554083473951
993.9724399919933 1.4343368650206672
995.9291115339933 1.404661099414263
997.8857830759932 1.3822722914575887
999.8424546179932 1.3666115990404735
1001.7991261599932 1.3572134362027337
1003.7557977019932 1.3536998406909166
1005.7124692439932 1.3557742942647795
1007.6691407859931 1.3632158000752441
1009.6258123279931 1.3758736713208637
1011.5824838699931 1.3936632732012417
1013.5391554119931 1.4165628373758175
1015.4958269539931 1.444611402464386
1017.452498495993 1.4779079046583408
1019.409170037993 1.5166114359330845
1021.365841579993 1.5609426953804326
1023.322513121993 1.569464040092113
1025.279184663993 1.6266379294782671
1027.235856205993 1.6904890922320728
1029.1925277479932 1.7615255780395946
1031.1491992899932 1.840344644666192
1033.1058708319933 1.9276432954476825
1035.0625423739934 2.024230985388467
1037.0192139159935 2.1310448010986285
1038.9758854579936 2.249167469106173
1040.9325569999937 2.379848593440557
1042.8892285419938 2.5245295599172413
1044.845900083994 2.6848725593520677
1046.802571625994 2.8627941550482054
1048.759243167994 3.0605037186570185
1050.7159147099942 3.285049175170779
1052.6725862519943 3.530429445647989
1054.6292577939944 3.8044404630366815
1056.5859293359945 4.110936183538268
1058.5426008779946 4.454307929132784
1060.4992724199947 4.8395218042148205
1062.4559439619948 5.272131046932727
1064.4126155039949 5.758241692624107
1066.369287045995 6.304397926166188
1068.325958587995 6.9173366423610805
1070.2826301299951 7.603538598958905
1072.2393016719952 8.368477693627872
1074.1959732139953 9.215446578210665
1076.1526447559954 10.143831596992362
1078.1093162979955 11.14675386184499
1080.0659878399956 12.208136507094355
1082.0226593819957 13.30058917716148
1083.9793309239958 14.37881695010025
1085.936002465996 15.385322577434303
1087.892674007996 16.249783574998155
1089.849345549996 16.898598475306947
1091.8060170919962 17.267930247551607
1093.7626886339963 17.317925668853086
1095.7193601759964 17.04282559643133
1097.6760317179965 16.472499243509706
1099.6327032599966 15.664681987280218
1101.5893748019967 14.691449241175727
1103.5460463439967 13.625314917633519
1105.5027178859968 12.529092500839514
1107.459389427997 11.450929222797372
1109.416060969997 10.423696685641955
1111.3727325119971 9.467013126452375
1113.3294040539972 8.590303366852435
1115.2860755959973 7.795856475402059
1117.2427471379974 7.08138219938066
1119.1994186799975 6.441930587458447
1121.1560902219976 5.871226519867158
1123.1127617639977 5.362539650793922
1125.0694333059978 4.909216240451885
1127.0261048479979 4.504979448805521
1128.982776389998 4.144078603788541
1130.939447931998 3.821344332363421
1132.8961194739982 3.53218791376582
1134.8527910159983 3.2725697845572297
1136.8094625579984 3.038952866965682
1138.7661340999985 2.828250231866297
1140.7228056419985 2.6377726216426436
1142.6794771839986 2.4651788419968876
1144.6361487259987 2.308430483305632
1146.5928202679988 2.1657515074245524
1148.549491809999 2.0355927058105445
1150.506163351999 1.9166007498517859
1152.4628348939991 1.807591418233438
1154.4195064359992 1.707526538099671
1156.3761779779993 1.6154941786370098
1158.3328495199994 1.5306916640903516
1160.2895210619995 1.4524110140193927
1162.2461926039996 1.3800264635340769
1164.2028641459997 1.3129837606583266
1166.1595356879998 1.2507909794207008
1168.1162072299999 1.1930106246449017
1170.072878772 1.1392528373716109
1172.029550314 1.0836019913463473
1173.9862218560002 1.0369704184168451
1175.9428933980003 1.0046490193970155
1177.8995649400003 0.9641151893972023
1179.8562364820004 0.9261924715812522
1181.8129080240005 0.890678333931384
1183.7695795660006 0.8573901810931019
1185.7262511080007 0.8261631861568515
1187.6829226500008 0.7968483977022736
1189.639594192001 0.7693110852486531
1191.596265734001 0.7434292917688242
1193.552937276001 0.7190925666012683
1195.5096088180012 0.6962008560736022
1197.4662803600013 0.6746635325456876
1199.4229519020014 0.6543985454897709
1201.3796234440015 0.6186415893057599
1203.3362949860016 0.6009714036344607
1205.2929665280017 0.5843656553198667
1207.2496380700018 0.5687703076142518
1209.2063096120019 0.554137064244296
1211.162981154002 0.5404230291502834
1213.119652696002 0.5275904288317071
1215.0763242380021 0.5156063944885695
1217.0329957800022 0.5044428023017852
1218.9896673220023 0.4940761713413704
1220.9463388640024 0.48448761975590976
1222.9030104060025 0.4756628811088926
1224.8596819480026 0.46759238401365094
1226.8163534900027 0.46027139960372804
1228.7730250320028 0.45370026288056853
1230.729696574003 0.4478846756188053
1232.686368116003 0.4428361002802977
1234.643039658003 0.43857225626551266
1236.5997112000032 0.4351177317459186
1238.5563827420033 0.43250472613304836
1240.5130542840034 0.43077393969032846
1242.4697258260035 0.42997562743385265
1244.4263973680036 0.4301708335451168
1246.3830689100037 0.43143281879868006
1248.3397404520038 0.4338486850047783
1250.2964119940038 0.43752118403112683
1252.253083536004 0.44257066967337794
1254.209755078004 0.4491371009030113
1256.1664266200041 0.45738192336475453
1258.1230981620042 0.46748952550660755
1260.0797697040043 0.4796677623330535
1262.0364412460044 0.49414673109387264
1263.9931127880045 0.5111745297806816
1265.9497843300046 0.5310080922181317
1267.9064558720047 0.5538963569189751
1269.8631274140048 0.5800520496068617
1271.819798956005 0.6096074778390783
1273.776470498005 0.6425495386373554
1275.733142040005 0.6786307971025008
1277.6898135820052 0.7172589094105847
1279.6464851240053 0.7573781357137929
1281.6031566660054 0.7973753053521447
1283.5598282080055 0.8350646368946126
1285.5164997500056 0.8678181919131385
1287.4731712920056 0.8928890595201917
1289.4298428340057 0.9079049263214578
1291.3865143760058 0.9114059013250613
1293.343185918006 0.9032265532225957
1295.299857460006 0.884552952674692
1297.2565290020061 0.8576270392351987
1299.2132005440062 0.825231270461166
1301.1698720860063 0.7901564727605375
1303.1265436280064 0.7548083239530298
1305.0832151700065 0.7210047100560736
1307.0398867120066 0.6899323566066822
1308.9965582540067 0.662198029181847
1310.9532297960068 0.6379171646285008
1312.9099013380069 0.6168079936468032
1314.866572880007 0.598284706507374
1316.823244422007 0.5815597818993608
1318.7799159640072 0.565768193894294
1320.7365875060073 0.5501129711664695
1322.6932590480073 0.5340081320460341
1324.6499305900074 0.5171774133633069
1326.6066021320075 0.4996732871682256
1328.5632736740076 0.48181220080165965
1330.5199452160077 0.46405798208395393
1332.4766167580078 0.4469008626198187
1334.433288300008 0.3130178228122191
1336.389959842008 0.3001041302673706
1338.346631384008 0.2886974033710798
1340.3033029260082 0.27890695513481034
1342.2599744680083 0.27076887934538296
1344.2166460100084 0.26427136870223267
1346.1733175520085 0.2593759628526496
1348.1299890940086 0.256033557977563
1350.0866606360087 0.2541956231391522
1352.0433321780088 0.25382166305196463
1354.0000037200089 0.25488402153504564
1355.956675262009 0.25737095257048664
1357.913346804009 0.2612886663208563
1359.8700183460091 0.26666285937712575
1361.8266898880092 0.27354008452524464
1363.7833614300093 0.28198920501220354
1365.7400329720094 0.29210310295752745
1367.6967045140095 0.3040007607860664
1369.6533760560096 0.3178297984940335
1371.6100475980097 0.3337695190512274
1373.5667191400098 0.35203448000635673
1375.52339068201 0.3728785605815119
1377.48006222401 0.39659941595874143
1379.43673376601 0.42354308386790784
1381.3934053080102 0.4541083035478295
1383.3500768500103 0.4887497809601502
1385.3067483920104 0.5279791264299336
1387.2634199340105 0.5723614207136869
1389.2200914760106 0.6225042342942069
1391.1767630180107 0.6790343354559938
1393.1334345600108 0.7425552357895012
1395.0901061020109 0.8135762841216867
1397.046777644011 0.8924018212640235
1399.003449186011 0.9789684154272901
1400.9601207280111 1.0726223315101524
1402.9167922700112 1.1718428951179798
1404.8734638120113 1.2739460269668779
1406.8301353540114 1.374848660511104
1408.7868068960115 1.4690297371053893
1410.7434784380116 1.5498543662958069
1412.7001499800117 1.6103787020309153
1414.6568215220118 1.6445799817166173
1416.613493064012 1.64869746730784
1418.570164606012 1.6221858783375487
1420.526836148012 1.56786006324243
1422.4835076900122 1.4911629641790405
1424.4401792320123 1.4983504263090848
1426.3968507740124 1.3989688401323306
1428.3535223160125 1.2968108622598393
1430.3101938580126 1.1964170559245144
1432.2668654000126 1.1008875604682369
1434.2235369420127 1.0120727961725002
1436.1802084840128 0.9308620295910822
1438.136880026013 0.8574717241450412
1440.093551568013 0.7916866227627251
1442.0502231100131 0.7330407766919852
1444.0068946520132 0.6809433975943886
1445.9635661940133 0.6347608971424678
1447.9202377360134 0.5938670416110272
1449.8769092780135 0.5576712717637932
1451.8335808200136 0.5256327808214913
1453.7902523620137 0.4972657153827948
1455.7469239040138 0.4721391167869292
1457.7035954460139 0.4498739539147266
1459.660266988014 0.4301387253355249
1461.616938530014 0.4126445277778108
1463.5736100720142 0.3971401119937915
1465.5302816140143 0.3834072098035993
1467.4869531560144 0.37125627008002887
1469.4436246980144 0.3605226542355858
1471.4002962400145 0.3510632917931943
1473.3569677820146 0.34275376975176275
1475.3136393240147 0.33548581663144317
1477.2703108660148 0.32916513755577537
1479.226982408015 0.32370955690939346
1481.183653950015 0.31904742779299433
1483.140325492015 0.3151162713510679
1485.0969970340152 0.3118616132920935
1487.0536685760153 0.3092359891166315
1489.0103401180154 0.30719809348585647
1490.9670116600155 0.30571205269663565
1492.9236832020156 0.3047468023472326
1494.8803547440157 0.3042755549887911
1496.8370262860158 0.3042753448916412
1498.7936978280159 0.30472663905121805
1500.750369370016 0.30561300525756185
1502.707040912016 0.3069208294953383
1504.6637124540161 0.30863907616531033
1506.6203839960162 0.3107590856564975
1508.5770555380163 0.3132744046800798
1510.5337270800164 0.31618064552666425
1512.4903986220165 0.3194753710495135
1514.4470701640166 0.3231580027261751
1516.4037417060167 0.3272297496253908
1518.3604132480168 0.3316935565185613
1520.317084790017 0.3365540697367865
1522.273756332017 0.34181761969536795
1524.230427874017 0.3474922192960515
1526.1870994160172 0.3535875776805292
1528.1437709580173 0.36011512905329274
1530.1004425000174 0.3670880765236164
1532.0571140420175 0.3700686684327842
1534.0137855840176 0.37805025813643806
1535.9704571260177 0.3865264614636632
1537.9271286680178 0.3955183589202203
1539.8838002100179 0.40504925631836536
1541.840471752018 0.4151448304098158
1543.797143294018 0.42583329564883843
1545.7538148360181 0.43714559402876135
1547.7104863780182 0.4491156102796568
1549.6671579200183 0.4617804151015664
1551.6238294620184 0.4751805395449851
1553.5805010040185 0.4893602841481972
1555.5371725460186 0.5043680670109272
1557.4938440880187 0.5202568156390087
1559.4505156300188 0.537084408151139
1561.407187172019 0.554914170314848
1563.363858714019 0.5727991614289418
1565.320530256019 0.5928640758645677
1567.2772017980192 0.6141594145309838
1569.2338733400193 0.6367766809510674
1571.1905448820194 0.6608164563653783
1573.1472164240195 0.686389438233555
1575.1038879660196 0.7136176202726672
1577.0605595080197 0.7426356355706473
1579.0172310500197 0.7735922879736999
1580.9739025920198 0.8066523012753555
1582.93057413402 0.8419983208591201
1584.88724567602 0.8798332085178948
1586.8439172180201 0.9203826783703947
1588.8005887600202 0.9638983303277803
1590.7572603020203 1.010661147677172
1592.7139318440204 1.0609855373236943
1594.6706033860205 1.115224005386338
1596.6272749280206 1.1737725775233854
1598.5839464700207 1.2370770929362502
1600.5406180120208 1.3056405238227562
1602.4972895540209 1.3800314984186897
1604.453961096021 1.4608942358290662
1606.410632638021 1.5489601344611075
1608.3673041800212 1.6450612923419254
1610.3239757220213 1.7501462753090014
1612.2806472640214 1.8652984847961527
1614.2373188060214 1.9917575049017635
1616.1939903480215 2.130943818617937
1618.1506618900216 2.2844872588008975
1620.1073334320217 2.4542594733348246
1622.0640049740218 2.642410492021799
1624.020676516022 2.851409115340584
1625.977348058022 3.084086193436664
1627.934019600022 3.3436787598321263
1629.8906911420222 3.6338711748903267
1631.8473626840223 3.9588265452429017
1633.8040342260224 4.323197185352188
1635.7607057680225 4.732096060744223
1637.7173773100226 5.191001127161468
1639.6740488520227 5.7055503971447825
1641.6307203940228 6.281167074751918
1643.5873919360229 6.9224325017926915
1645.544063478023 7.632105179602976
1647.500735020023 8.40967976405776
1649.4574065620232 9.249416542515489
1651.4140781040232 10.137891551570078
1653.3707496460233 11.051370966267767
1655.3274211880234 11.953724736711829
1657.2840927300235 12.784976942208807
1659.2407642720236 13.508772453093803
1661.1974358140237 14.052345448046571
1663.1541073560238 14.362372277505484
1665.110778898024 14.405564403331159
1667.067450440024 14.177114258156404
1669.024121982024 13.701976956464852
1670.9807935240242 13.028385995827671
1672.9374650660243 12.21655392661098
1674.8941366080244 11.327059413602235
1676.8508081500245 10.412377474848526
1678.8074796920246 9.512731184322268
1680.7641512340247 8.655582626164067
1682.7208227760248 7.8573222480473754
1684.6774943180249 7.125825066295255
1686.634165860025 6.463004959461687
1688.590837402025 5.866950247160512
1690.5475089440251 5.333527295734814
1692.5041804860252 4.857495353425989
1694.4608520280253 4.433233281350214
1696.4175235700254 4.055183836034672
1698.3741951120255 3.7181045307855363
1700.3308666540256 3.4171923340818036
1702.2875381960257 3.1481297279504887
1704.2442097380258 2.907084170663916
1706.200881280026 2.6906817892852377
1708.157552822026 2.495968393591655
1710.114224364026 2.3203657569032923
1712.0708959060262 2.161627779457164
1714.0275674480263 2.017799048021876
1715.9842389900264 1.887177011896026
1717.9409105320265 1.7682782229664014
1719.8975820740266 1.659808644722593
1721.8542536160267 1.560637797057943
1723.8109251580267 1.4697763900197829
1725.7675967000268 1.3863570595137857
1727.724268242027 1.3096178195200394
1729.680939784027 1.2388878690866207
1731.6376113260271 1.1735754264411113
1733.5942828680272 1.1131573000884374
1735.5509544100273 1.0571699438560758
1737.5076259520274 1.0052017774658084
1739.4642974940275 0.9568865854240972
1741.4209690360276 0.91189783454626
1743.3776405780277 0.8699437743385646
1745.3343121200278 0.8307632050191476
1747.2909836620279 0.7941218155076937
1749.247655204028 0.7598090086217347
1751.204326746028 0.727635143339896
1753.1609982880282 0.6974291346571329
1755.1176698300283 0.6690363605565716
1757.0743413720284 0.642316833212826
1759.0310129140285 0.6171435979432005
1760.9876844560285 0.5934013288242861
1762.9443559980286 0.5709850944517009
1764.9010275400287 0.5497992711747555
1766.8576990820288 0.5297565843987613
1768.814370624029 0.5107772613104655
1770.771042166029 0.4927882807261462
1772.7277137080291 0.4757227077537362
1774.6843852500292 0.4595191026555946
1776.6410567920293 0.4441209947437523
1778.5977283340294 0.42947641337358905
1780.5543998760295 0.4155374691575821
1782.5110714180296 0.402259979425374
1784.4677429600297 0.3896031327329042
1786.4244145020298 0.3775291878910344
1788.3810860440299 0.366003203559225
1790.33775758603 0.3549927949460658
1792.29442912803 0.3444679145873898
1794.2511006700302 0.33440065454406287
1796.2077722120302 0.32476506768360897
1798.1644437540303 0.3155370059896139
1800.1211152960304 0.3066939740862947
1802.0777868380305 0.29821499637779303
1804.0344583800306 0.290080496386959
1805.9911299220307 0.28227218704032153
1807.9478014640308 0.2747729707877316
1809.904473006031 0.26756684856951474
1811.861144548031 0.2606388367531833
1813.817816090031 0.2539748912578224
1815.7744876320312 0.24756183816888402
1817.7311591740313 0.24138731022076262
1819.6878307160314 0.235439688590466
1821.6445022580315 0.2297080495040126
1823.6011738000316 0.2241821152088497
1825.5578453420317 0.21885220891140242
1827.5145168840318 0.2137092133195523
1829.4711884260319 0.20874453246602476
1831.427859968032 0.20395005652087692
1833.384531510032 0.19931812932999127
1835.3412030520321 0.19484151844210587
1837.2978745940322 0.19051338740981197
1839.2545461360323 0.18632727017043352
1841.2112176780324 0.1822770473310487
1843.1678892200325 0.1783569241983634
1845.1245607620326 0.17456141040891013
1847.0812323040327 0.1708853010283142
1849.0379038460328 0.16732365900030147
1850.994575388033 0.16387179883686856
1852.951246930033 0.16052527145072332
1854.907918472033 0.15727985003984135
1856.8645900140332 0.1541315169418802
1858.8212615560333 0.1510764513833271
1860.7779330980334 0.14811101805471533
1862.7346046400335 0.1452317564490934
1864.6912761820336 0.1424353709062327
1866.6479477240337 0.13971872130987453
1868.6046192660338 0.13707881438968397
1870.5612908080338 0.13451279558355486
1872.517962350034 0.13201794141952217
1874.474633892034 0.12959165237983014
1876.4313054340341 0.1272314462127055
1878.3879769760342 0.12493495166011881
1880.3446485180343 0.12269990257231653
1882.3013200600344 0.1205241323821864
1884.2579916020345 0.11840556891460537
1886.2146631440346 0.11634222950782795
1888.1713346860347 0.11433221642571963
1890.1280062280348 0.11237371254124226
1892.084677770035 0.11046497727306585
1894.041349312035 0.10860434275852927
1895.998020854035 0.10679021024740953
1897.9546923960352 0.10502104670209654
1899.9113639380353 0.10329538159081526
1901.8680354800354 0.10161180386150079
1903.8247070220355 0.09996895908481601
1905.7813785640355 0
1907.7380501060356 0
1909.6947216480357 0
1911.6513931900358 0
1913.608064732036 0
1915.564736274036 0
1917.5214078160361 0
1919.4780793580362 0
1921.4347509000363 0
1923.3914224420364 0
1925.3480939840365 0
1927.3047655260366 0
1929.2614370680367 0
1931.2181086100368 0
1933.1747801520369 0
1935.131451694037 0
1937.088123236037 0
1939.0447947780372 0
1941.0014663200373 0
1942.9581378620373 0
1944.9148094040374 0
1946.8714809460375 0
1948.8281524880376 0
1950.7848240300377 0
1952.7414955720378 0
1954.698167114038 0
1956.654838656038 0
1958.611510198038 0
1960.5681817400382 0
1962.5248532820383 0
1964.4815248240384 0
1966.4381963660385 0
1968.3948679080386 0
1970.3515394500387 0
1972.3082109920388 0
1974.2648825340389 0
1976.221554076039 0
1978.178225618039 0
1980.1348971600391 0
1982.0915687020392 0
1984.0482402440393 0
1986.0049117860394 0
1987.9615833280395 0
1989.9182548700396 0
1991.8749264120397 0
1993.8315979540398 0
1995.78826949604 0
1997.74494103804 0
1999.70161258004 0
2001.6582841220402 0
2003.6149556640403 0
2005.5716272060404 0
2007.5282987480405 0
2009.4849702900406 0
2011.4416418320407 0
2013.3983133740408 0
2015.3549849160408 0
2017.311656458041 0
2019.268328000041 0
2021.2249995420411 0
2023.1816710840412 0
2025.1383426260413 0
2027.0950141680414 0
2029.0516857100415 0
2031.0083572520416 0
2032.9650287940417 0
2034.9217003360418 0
2036.878371878042 0
2038.835043420042 0
2040.791714962042 0
2042.7483865040422 0
2044.7050580460423 0
2046.6617295880424 0
2048.6184011300425 0
2050.5750726720426 0
2052.5317442140426 0
2054.4884157560427 0
2056.445087298043 0
2058.401758840043 0
2060.358430382043 0
2062.315101924043 0
2064.271773466043 0
2066.2284450080433 0
2068.1851165500434 0
2070.1417880920435 0
2072.0984596340436 0
2074.0551311760437 0
2076.011802718044 0
2077.968474260044 0
2079.925145802044 0
2081.881817344044 0
2083.838488886044 0
2085.7951604280443 0
2087.7518319700443 0
2089.7085035120444 0
2091.6651750540445 0
2093.6218465960446 0
2095.5785181380447 0
2097.535189680045 0
2099.491861222045 0
2101.448532764045 0
2103.405204306045 0
2105.361875848045 0
2107.3185473900453 0
2109.2752189320454 0
2111.2318904740455 0
2113.1885620160456 0
2115.1452335580457 0
2117.1019051000458 0
2119.058576642046 0
2121.015248184046 0
2122.971919726046 0
2124.928591268046 0
2126.8852628100462 0
2128.8419343520463 0
2130.7986058940464 0
2132.7552774360465 0
2134.7119489780466 0
2136.6686205200467 0
2138.625292062047 0
2140.581963604047 0
2142.538635146047 0
2144.495306688047 0
2146.451978230047 0
2148.4086497720473 0
2150.3653213140474 0
2152.3219928560475 0
2154.2786643980476 0
2156.2353359400477 0
2158.1920074820478 0
2160.148679024048 0
2162.105350566048 0
2164.062022108048 0
2166.018693650048 0
2167.9753651920482 0
2169.9320367340483 0
2171.8887082760484 0
2173.8453798180485 0
2175.8020513600486 0
2177.7587229020487 0
2179.715394444049 0
2181.672065986049 0
2183.628737528049 0
2185.585409070049 0
2187.542080612049 0
2189.4987521540493 0
2191.4554236960494 0
2193.4120952380495 0
2195.3687667800496 0
2197.3254383220496 0
2199.2821098640497 0
2201.23878140605 0
2203.19545294805 0
2205.15212449005 0
2207.10879603205 0
2209.06546757405 0
2211.0221391160503 0
2212.9788106580504 0
2214.9354822000505 0
2216.8921537420506 0
2218.8488252840507 0
2220.805496826051 0
2222.762168368051 0
2224.718839910051 0
2226.675511452051 0
2228.632182994051 0
2230.5888545360513 0
2232.5455260780514 0
2234.5021976200514 0
2236.4588691620515 0
2238.4155407040516 0
2240.3722122460517 0
2242.328883788052 0
2244.285555330052 0
2246.242226872052 0
2248.198898414052 0
2250.155569956052 0
2252.1122414980523 0
2254.0689130400524 0
2256.0255845820525 0
2257.9822561240526 0
2259.9389276660527 0
2261.8955992080528 0
2263.852270750053 0
2265.808942292053 0
2267.765613834053 0
2269.722285376053 0
2271.6789569180532 0
2273.6356284600533 0
2275.5923000020534 0
2277.5489715440535 0
2279.5056430860536 0
2281.4623146280537 0
2283.418986170054 0
2285.375657712054 0
2287.332329254054 0
2289.289000796054 0
2291.245672338054 0
2293.2023438800543 0
2295.1590154220544 0
2297.1156869640545 0
2299.0723585060546 0
2301.0290300480547 0
2302.9857015900548 0
2304.942373132055 0
2306.899044674055 0
2308.855716216055 0
2310.812387758055 0
2312.7690593000552 0
2314.7257308420553 0
2316.6824023840554 0
2318.6390739260555 0
2320.5957454680556 0
2322.5524170100557 0
2324.509088552056 0
2326.465760094056 0
2328.422431636056 0
2330.379103178056 0
2332.335774720056 0
2334.2924462620563 0
2336.2491178040564 0
2338.2057893460565 0
2340.1624608880566 0
2342.1191324300567 0
2344.0758039720567 0
2346.032475514057 0
2347.989147056057 0
2349.945818598057 0
2351.902490140057 0
2353.859161682057 0
2355.8158332240573 0
2357.7725047660574 0
2359.7291763080575 0
2361.6858478500576 0
2363.6425193920577 0
2365.599190934058 0
2367.555862476058 0
2369.512534018058 0
2371.469205560058 0
2373.425877102058 0
2375.3825486440583 0
2377.3392201860584 0
2379.2958917280585 0
2381.2525632700585 0
2383.2092348120586 0
2385.1659063540587 0
2387.122577896059 0
2389.079249438059 0
2391.035920980059 0
2392.992592522059 0
2394.949264064059 0
2396.9059356060593 0
2398.8626071480594 0
2400.8192786900595 0
2402.7759502320596 0
2404.7326217740597 0
2406.68929331606 0
2408.64596485806 0
2410.60263640006 0
2412.55930794206 0
2414.51597948406 0
2416.4726510260602 0
2418.4293225680603 0
2420.3859941100604 0
2422.3426656520605 0
2424.2993371940606 0
2426.2560087360607 0
2428.212680278061 0
2430.169351820061 0
2432.126023362061 0
2434.082694904061 0
2436.039366446061 0
2437.9960379880613 0
2439.9527095300614 0
2441.9093810720615 0
2443.8660526140616 0
2445.8227241560617 0
2447.7793956980618 0
2449.736067240062 0
2451.692738782062 0
2453.649410324062 0
2455.606081866062 0
2457.5627534080622 0
2459.5194249500623 0
2461.4760964920624 0
2463.4327680340625 0
2465.3894395760626 0
2467.3461111180627 0
2469.302782660063 0
2471.259454202063 0
2473.216125744063 0
2475.172797286063 0
2477.129468828063 0
2479.0861403700633 0
2481.0428119120634 0
2482.9994834540635 0
2484.9561549960636 0
2486.9128265380637 0
2488.8694980800637 0
2490.826169622064 0
2492.782841164064 0
2494.739512706064 0
2496.696184248064 0
2498.652855790064 0
2500.6095273320643 0
2502.5661988740644 0
2504.5228704160645 0
2506.4795419580646 0
2508.4362135000647 0
2510.392885042065 0
2512.349556584065 0
2514.306228126065 0
2516.262899668065 0
2518.219571210065 0
2520.1762427520653 0
2522.1329142940654 0
2524.0895858360655 0
2526.0462573780655 0
2528.0029289200656 0
2529.9596004620657 0
2531.916272004066 0
2533.872943546066 0
2535.829615088066 0
2537.786286630066 0
2539.742958172066 0
2541.6996297140663 0
2543.6563012560664 0
2545.6129727980665 0
2547.5696443400666 0
2549.5263158820667 0
2551.482987424067 0
2553.439658966067 0
2555.396330508067 0
2557.353002050067 0
2559.309673592067 0
2561.2663451340673 0
2563.2230166760673 0
2565.1796882180674 0
2567.1363597600675 0
2569.0930313020676 0
2571.0497028440677 0
2573.006374386068 0
2574.963045928068 0
2576.919717470068 0
2578.876389012068 0
2580.833060554068 0
2582.7897320960683 0
2584.7464036380684 0
2586.7030751800685 0
2588.6597467220686 0
2590.6164182640687 0
2592.5730898060688 0
2594.529761348069 0
2596.486432890069 0
2598.443104432069 0
2600.399775974069 0
2602.3564475160692 0
2604.3131190580693 0
2606.2697906000694 0
2608.2264621420695 0
2610.1831336840696 0
2612.1398052260697 0
2614.09647676807 0
2616.05314831007 0
2618.00981985207 0
2619.96649139407 0
2621.92316293607 0
2623.8798344780703 0
2625.8365060200704 0
2627.7931775620705 0
2629.7498491040706 0
2631.7065206460707 0
2633.6631921880708 0
2635.619863730071 0
2637.576535272071 0
2639.533206814071 0
2641.489878356071 0
2643.446549898071 0
2645.4032214400713 0
2647.3598929820714 0
2649.3165645240715 0
2651.2732360660716 0
2653.2299076080717 0
2655.186579150072 0
2657.143250692072 0
2659.099922234072 0
2661.056593776072 0
2663.013265318072 0
2664.9699368600723 0
2666.9266084020724 0
2668.8832799440725 0
2670.8399514860726 0
2672.7966230280726 0
2674.7532945700727 0
2676.709966112073 0
2678.666637654073 0
2680.623309196073 0
2682.579980738073 0
2684.536652280073 0
2686.4933238220733 0
2688.4499953640734 0
2690.4066669060735 0
2692.3633384480736 0
2694.3200099900737 0
2696.276681532074 0
2698.233353074074 0
2700.190024616074 0
2702.146696158074 0
2704.103367700074 0
2706.0600392420743 0
2708.0167107840743 0
2709.9733823260744 0
2711.9300538680745 0
2713.8867254100746 0
2715.8433969520747 0
2717.800068494075 0
2719.756740036075 0
2721.713411578075 0
2723.670083120075 0
2725.626754662075 0
2727.5834262040753 0
2729.5400977460754 0
2731.4967692880755 0
2733.4534408300756 0
2735.4101123720757 0
2737.3667839140758 0
2739.323455456076 0
2741.280126998076 0
2743.236798540076 0
2745.193470082076 0
2747.1501416240762 0
2749.1068131660763 0
2751.0634847080764 0
2753.0201562500765 0
2754.9768277920766 0
2756.9334993340767 0
2758.890170876077 0
2760.846842418077 0
2762.803513960077 0
2764.760185502077 0
2766.716857044077 0
2768.6735285860773 0
2770.6302001280774 0
2772.5868716700775 0
2774.5435432120776 0
2776.5002147540777 0
2778.4568862960778 0
2780.413557838078 0
2782.370229380078 0
2784.326900922078 0
2786.283572464078 0
2788.2402440060782 0
2790.1969155480783 0
2792.1535870900784 0
2794.1102586320785 0
2796.0669301740786 0
2798.0236017160787 0
2799.980273258079 0
2801.936944800079 0
2803.893616342079 0.004758896551724138
2805.850287884079 0.00483690191747886
2807.806959426079 0.004916836393305018
2809.7636309680793 0.004998763959623135
2811.7203025100794 0.0050827512646814425
2813.6769740520795 0.0051688677588161945
2815.6336455940796 0.005257185836639981
2817.5903171360796 0.005347780987696136
2819.5469886780797 0.005440731956158571
2821.50366022008 0.00553612091020129
2823.46033176208 0.005634033621710547
2825.41700330408 0.00573455965706557
2827.37367484608 0.0058377925797714805
2829.33034638808 0.005943830165790746
2831.2870179300803 0.0060527746324879166
2833.2436894720804 0.006164732882176927
2835.2003610140805 0.006279816761341611
2837.1570325560806 0.006398143336688856
2839.1137040980807 0.006519835189290901
2841.070375640081 0.006645020728179379
2843.027047182081 0.006773834524869861
2844.983718724081 0.00690641767042283
2846.940390266081 0.00704291815678644
2848.897061808081 0.007183491284319374
2850.8537333500813 0.0126529897527324
2852.8104048920814 0.012889485059722563
2854.7670764340814 0.013132725737218683
2856.7237479760815 0.013382972581533663
2858.6804195180816 0.013640499191892997
2860.6370910600817 0.013905592735797875
2862.593762602082 0.014178554768497964
2864.550434144082 0.014459702111000599
2866.507105686082 0.014749367791455298
2868.463777228082 0.015047902055207564
2870.420448770082 0.015355673449319217
2872.3771203120823 0.01567306998790926
2874.3337918540824 0.016000500405286326
2876.2904633960825 0.016338395504527828
2878.2471349380826 0.016687209609920393
2880.2038064800827 0.01704742213252035
2882.1604780220828 0.017419539259032016
2884.117149564083 0.017804095775247598
2886.073821106083 0.018201657036458672
2888.030492648083 0.018612821098551655
2889.987164190083 0.01903822102495461
2891.9438357320832 0.019478527386231723
2893.9005072740833 0.019934450970946344
2895.8571788160834 0.020406745728460643
2897.8138503580835 0.028818694725260198
2899.7705219000836 0.029456043819814468
2901.7271934420837 0.03011552983831349
2903.683864984084 0.03079822081343147
2905.640536526084 0.0315052514745833
2907.597208068084 0.03223782839113013
2909.553879610084 0.03299723558898367
2911.510551152084 0.03378484069130029
2913.4672226940843 0.03460210164014531
2915.4238942360844 0.0354505740630439
2917.3805657780845 0.03633191935634862
2919.3372373200846 0.03724791356649117
2921.2939088620847 0.038200457160626373
2923.2505804040848 0.039191585790120075
2925.207251946085 0.04022348216402236
2927.163923488085 0.04129848916538299
2929.120595030085 0.0424191243613369
2931.077266572085 0.043588096078704903
2933.0339381140852 0.044808321240875075
2934.9906096560853 0.046082945189496634
2936.9472811980854 0.0474153637466708
2938.9039527400855 0.048809247810621195
2940.8606242820856 0.05026857082117091
2942.8172958240857 0.051797639481814095
2944.773967366086 0.05340112818402068
2946.730638908086 0.05508411764816943
2948.687310450086 0.05685213837597533
2950.643981992086 0.05871121960362008
2952.600653534086 0.06066794455558524
2954.5573250760863 0.06272951292950348
2956.5139966180864 0.06490381169586017
2958.4706681600865 0.06719949547748087
2960.4273397020866 0.06962607798766335
2962.3840112440867 0.07219403625877738
2964.3406827860867 0.07491492969255144
2966.297354328087 0.07780153631781715
2968.254025870087 0.08086800906143887
2970.210697412087 0.08413005533544604
2972.167368954087 0.0876051438317274
2974.124040496087 0.09131274311052659
2976.0807120380873 0.09527459738743059
2978.0373835800874 0.09951504588350452
2979.9940551220875 0.10406139322227025
2981.9507266640876 0.10894433965015117
2983.9073982060877 0.11419848133166831
2985.864069748088 0.11986289262090519
2987.820741290088 0.1259818040046754
2989.777412832088 0.13260539127381987
2991.734084374088 0.13979069325522994
2993.690755916088 0.1476026768527342
2995.6474274580883 0.15611546872337762
2997.6040990000884 0.16541377185938752
2999.5607705420884 0.17559448135003372
3001.5174420840885 0.18676850456167998
3003.4741136260886 0.1990627735687771
3005.4307851680887 0.212622406686799
3007.387456710089 0.2276129233819288
3009.344128252089 0.24422233054007564
3011.300799794089 0.2626627601928793
3013.257471336089 0.2831711238838399
3015.214142878089 0.3060079226954596
3017.1708144200893 0.3314528728368621
3019.1274859620894 0.35979533353480797
3021.0841575040895 0.3913166400211422
3023.0408290460896 0.4262604119605081
3024.9975005880897 0.46478597671097704
3026.95417213009 0.5068998391536875
3028.91084367209 0.5523618830142027
3030.86751521409 0.6005687151777518
3032.82418675609 0.6504286942591165
3034.78085829809 0.7002628684044255
3036.7375298400902 0.7477893524924931
3038.6942013820903 0.7902617705540724
3040.6508729240904 0.8248116071870684
3042.6075444660905 0.8489709446089981
3044.5642160080906 0.8612424109783365
3046.5208875500907 0.8615051119285868
3048.477559092091 0.851078008902502
3050.434230634091 0.8324119336674511
3052.390902176091 0.8085513870253188
3054.347573718091 0.7825813953467753
3056.304245260091 0.7572246191468679
3058.2609168020913 0.7346447340966411
3060.2175883440914 0.7164228449721154
3062.1742598860915 0.7036370294864378
3064.1309314280916 0.6969798029809777
3066.0876029700917 0.6968696848702851
3068.0442745120918 0.7035336839414906
3070.000946054092 0.7170508884594109
3071.957617596092 0.7373537919600629
3073.914289138092 0.7641865031500259
3075.870960680092 0.7970211891575548
3077.8276322220922 0.8349397137151311
3079.7843037640923 0.8764999627486285
3081.7409753060924 0.9196274301632998
3083.6976468480925 0.961597972647627
3085.6543183900926 0.9991917587433948
3087.6109899320927 1.029074814959011
3089.567661474093 1.04838223566195
3091.524333016093 1.0553542759117889
3093.481004558093 1.0497891103033061
3095.437676100093 1.033112553378647
3097.394347642093 1.008032519615499
3099.3510191840933 0.9779361319074841
3101.3076907260934 0.9462702924048085
3103.2643622680935 0.9160904545070826
3105.2210338100936 0.8898401215932805
3107.1777053520937 0.8693236364635317
3109.1343768940937 0.8557936684422971
3111.091048436094 0.8500798598940951
3113.047719978094 0.852708749444403
3115.004391520094 0.8639878141246277
3116.961063062094 0.8840410044937979
3118.917734604094 0.9127899729253375
3120.8744061460943 0.9498779251269601
3122.8310776880944 0.9945362094545755
3124.7877492300945 1.0454024000377073
3126.7444207720946 1.1003176553509488
3128.7010923140947 1.1561628435943143
3130.657763856095 1.208830892549054
3132.614435398095 1.2534540194238561
3134.571106940095 1.2849694825361593
3136.527778482095 1.2989850807867604
3138.484450024095 1.2927229067921469
3140.4411215660953 1.265689812972785
3142.3977931080954 1.2197774217868484
3144.3544646500955 1.158743761928941
3146.3111361920955 1.0873115889218492
3148.2678077340956 1.0102419360547445
3150.2244792760957 0.9316582253792696
3152.181150818096 0.8547147734444229
3154.137822360096 0.7815553292610424
3156.094493902096 0.7134468541179634
3158.051165444096 0.6509824614116656
3160.007836986096 0.594284299607051
3161.9645085280963 0.543173164189613
3163.9211800700964 0.4972958051101348
3165.8778516120965 0.45621336077484337
3167.8345231540966 0.41945892838074933
3169.7911946960967 0.3865726791320263
3171.747866238097 0.35712160345881905
3173.704537780097 0.33070923830923393
3175.661209322097 0.30697915739559317
3177.617880864097 0.2856147730217962
3179.574552406097 0.2663371050706637
3181.5312239480972 0.248901557173424
3183.4878954900973 0.2330943305958525
3185.4445670320974 0.21872884148498528
3187.4012385740975 0.2056423399867028
3189.3579101160976 0.19369282695710205
3191.3145816580977 0.182756302671564
3193.271253200098 0.172724346845161
3195.227924742098 0.1635020104668864
3197.184596284098 0.15500599102515253
3199.141267826098 0.1471630596130102
3201.097939368098 0.13990870861877613
3203.0546109100983 0.1331859906760629
3205.0112824520984 0.12694452232967376
3206.9679539940985 0.12113962892156041
3208.9246255360986 0.11573161020580733
3210.8812970780987 0.11068510900220975
3212.8379686200988 0.1059685677213851
3214.794640162099 0.10155375981871552
3216.751311704099 0.09741538516653962
3218.707983246099 0.09353071999539818
3220.664654788099 0.08987931347375876
3222.6213263300992 0.08644272420115877
3224.5779978720993 0.08320429091082948
3226.5346694140994 0.08014893254102497
3228.4913409560995 0.0772629735630673
3230.4480124980996 0.07453399106914842
3232.4046840400997 0.07195068064197294
3234.3613555821 0.06950273846655822
3236.3180271241 0.0671807575147875
3238.2746986661 0.06497613594649064
3240.2313702081 0.0628809961360289
3242.1880417501 0.06088811295823635
3244.1447132921003 0.05899085015853481
3246.1013848341004 0.057183103794458845
3248.0580563761005 0.055459251874192636
3250.0147279181006 0.05381410943579408
3251.9713994601007 0.052242888411711666
3253.9280710021008 0.05074116170962503
3255.884742544101 0.04930483101477741
3257.841414086101 0.047930097882674376
3259.798085628101 0.046613437745864975
3261.754757170101 0.04535157650581346
3263.711428712101 0.044141469421724144
3265.6681002541013 0.042980282043535586
3267.6247717961014 0.04186537296694698
3269.5814433381015 0.040794278214951143
3271.5381148801016 0.03976469707349495
3273.4947864221017 0.03877447922905444
3275.451457964102 0.037821613073510355
3277.408129506102 0.036904215057092
3279.364801048102 0.036020519983624766
3281.321472590102 0.03516887215412441
3283.278144132102 0.03434771727515151
3285.2348156741023 0.02884908476445496
3287.1914872161024 0.028159513880484814
3289.1481587581025 0.0274945410084555
3291.1048303001025 0.02685300460266205
3293.0615018421026 0.02623381106148706
3295.0181733841027 0.02563593000869635
3296.974844926103 0.02505838995250713
3298.931516468103 0.024500274288314833
3300.888188010103 0.02396071761438189
3302.844859552103 0.023438902332834285
3304.801531094103 0.022934055511024107
3306.7582026361033 0.022445445980737087
3308.7148741781034 0.021972381654887616
3310.6715457201035 0.02151420704327933
3312.6282172621036 0.02107030095074325
3314.5848888041037 0.02064007434252027
3316.541560346104 0.02022296836315084
3318.498231888104 0.019818452496389364
3320.454903430104 0.01942602285478967
3322.411574972104 0.019045200588624845
3324.368246514104 0.018675530404721464
3326.3249180561043 0.01831657918661589
3328.2815895981043 0.01796793470818788
3330.2382611401044 0.017629204433603045
3332.1949326821045 0.012033939289733765
3334.1516042241046 0.011797728786260122
3336.1082757661047 0.024587968466652677
3338.064947308105 0.02457863371160513
3340.021618850105 0.024580928033312625
3341.978290392105 0.024594788044208456
3343.934961934105 0.02462016870423247
3345.891633476105 0.024657043081330002
3347.8483050181053 0.024705402172046545
3349.8049765601054 0.024765254780946044
3351.7616481021055 0.024836627457911455
3353.7183196441056 0.02491956449270808
3355.6749911861057 0.025014127966505147
3357.6316627281058 0.02512039786036209
3359.588334270106 0.025238472220996105
3361.545005812106 0.02536846738445796
3363.501677354106 0.025510518258658105
3365.458348896106 0.025664778666005764
3367.4150204381062 0.02583142174775375
3369.3716919801063 0.02601064043198311
3371.3283635221064 0.026202647967517992
3373.2850350641065 0.026407678526434476
3375.2417066061066 0.026625987878221822
3377.1983781481067 0.026857854139072768
3379.155049690107 0.01926830707365908
3381.111721232107 0.01965289285576124
3383.068392774107 0.02004906680218197
3385.025064316107 0.02045729743939712
3386.981735858107 0.020878077122138287
3388.9384074001073 0.02131192349664255
3390.8950789421074 0.021759381069370885
3392.8517504841075 0.02222102288993466
3394.8084220261076 0.022697452357789076
3396.7650935681077 0.023189305163157363
3398.7217651101078 0.023697251373650693
3400.678436652108 0.024221997679156494
3402.635108194108 0.02476428980879533
3404.591779736108 0.025324915135107918
3406.548451278108 0.025904705482145067
3408.505122820108 0.026504540155813026
3410.4617943621083 0.027125349216695144
3412.4184659041084 0.027768117017651955
3414.3751374461085 0.02843388603082176
3416.3318089881086 0.029123760991233864
3418.2884805301087 0.029838913387139992
3420.245152072109 0.030580586330407535
3422.201823614109 0.0313500998439437
3424.158495156109 0.03214885660718661
3426.115166698109 0.03297834820526439
3428.071838240109 0.03384016193255608
3430.0285097821093 0.0347359882071649
3431.9851813241094 0.0356676286593254
3433.9418528661095 0.036637004964113616
3435.8985244081096 0.03764616849713265
3437.8551959501096 0.03869731090124131
3439.8118674921097 0.039792775663040625
3441.76853903411 0.04093507080991358
3443.72521057611 0.04212688285214271
3445.68188211811 0.043371092110254
3447.63855366011 0.04467078958554258
3449.59522520211 0.046029295552062095
3451.5518967441103 0.047450180071596904
3453.5085682861104 0.04893728565974287
3455.4652398281105 0.05049475236173617
3457.4219113701106 0.052127045531718756
3459.3785829121107 0.05383898664945617
3461.335254454111 0.05563578755499713
3463.291925996111 0.05752308853541391
3465.248597538111 0.05950700075979912
3467.205269080111 0.06159415363055287
3469.161940622111 0.06379174770237263
3471.1186121641113 0.06610761391727069
3473.0752837061113 0.06855028001678475
3475.0319552481114 0.07112904512416054
3476.9886267901115 0.07385406364306296
3478.9452983321116 0.07673643979935423
3480.9019698741117 0.07978833436348741
3482.858641416112 0.08302308533886277
3484.815312958112 0.08645534469296728
3486.771984500112 0.09010123355149283
3488.728656042112 0.0939785186807443
3490.685327584112 0.09810681356225216
3492.6419991261123 0.10250780792961349
3494.5986706681124 0.10720553030789051
3496.5553422101125 0.11222664889020707
3498.5120137521126 0.11760081702791554
3500.4686852941127 0.12336107072735424
3502.4253568361128 0.12954428686978642
3504.382028378113 0.13619171243839215
3506.338699920113 0.14334957688868263
3508.295371462113 0.1510698019819981
3510.252043004113 0.15941082596371656
3512.2087145461132 0.1684385619550954
3514.1653860881133 0.17822751387911592
3516.1220576301134 0.18886207717581602
3518.0787291721135 0.20043805596216394
3520.0354007141136 0.21306443306554368
3521.9920722561137 0.2268654342954946
3523.948743798114 0.24198293299599222
3525.905415340114 0.25857924458102965
3527.862086882114 0.2768403620903204
3529.818758424114 0.2969796806211681
3531.775429966114 0.31924224721812
3533.7321015081143 0.3439095476792806
3535.6887730501144 0.371304793645955
3537.6454445921145 0.40179858802277485
3539.6021161341146 0.4358147022759102
3541.5587876761147 0.47383546229547907
3543.5154592181148 0.5164058613543958
3545.472130760115 0.5641349296314817
3547.428802302115 0.6176919961447664
3549.385473844115 0.6777941666089631
3551.342145386115 0.7451794972695798
3553.2988169281152 0.8205579242795632
3555.2554884701153 0.9045291810468757
3557.2121600121154 0.9974543860907231
3559.1688315541155 1.0992674123830222
3561.1255030961156 1.2092169416107919
3563.0821746381157 1.325545769266543
3565.038846180116 1.445147106485507
3566.995517722116 1.5632914705455971
3568.952189264116 1.673581509509205
3570.908860806116 1.7683279286195723
3572.865532348116 1.839482825302892
3574.8222038901163 1.880066016933159
3576.7788754321164 1.8857199608913677
3578.7355469741165 1.855815336069799
3580.6922185161166 1.7936188216620306
3582.6488900581166 1.7054442882396674
3584.6055616001167 1.5991736906461673
3586.562233142117 1.4827369089053515
3588.518904684117 1.3630030379175662
3590.475576226117 1.2452373662445464
3592.432247768117 1.1330347409038544
3594.388919310117 1.0285407074277866
3596.3455908521173 0.93278612271698
3598.3022623941174 0.846021517669837
3600.2589339361175 0.7679966491329422
3602.2156054781176 0.698170415398676
3604.1722770201177 0.6358567905728371
3606.128948562118 0.5803199552526312
3608.085620104118 0.5308324540846399
3610.042291646118 0.4867080340678368
3611.998963188118 0.4473179678467116
3613.955634730118 0.41209708285355257
3615.9123062721183 0.3805436909743448
3617.8689778141184 0.35221614484530617
3619.8256493561184 0.32672773448996995
3621.7823208981185 0.30374096438384157
3623.7389924401186 0.28296181514394997
3625.6956639821187 0.2641343188915651
3627.652335524119 0.24703560800746882
3629.609007066119 0.23147149588156304
3631.565678608119 0.21727259029779306
3633.522350150119 0.20429090893191032
3635.479021692119 0.19239695156034678
3637.4356932341193 0.1814771783216823
3639.3923647761194 0.17143184357545202
3641.3490363181195 0.1621731380064906
3643.3057078601196 0.15362359608345913
3645.2623794021197 0.1457147308926896
3647.2190509441198 0.13838586322399304
3649.17572248612 0.13158311631666672
3651.13239402812 0.12525855175977324
3653.08906557012 0.11936942564359769
3655.04573711212 0.11387754718892255
3657.0024086541202 0.10874872477168858
3658.9590801961203 0.10395228655781572
3660.9157517381204 0.09946066491443871
3662.8724232801205 0.09524903541612044
3664.8290948221206 0.0912950026606407
3666.7857663641207 0.0875783262870217
3668.742437906121 0.08408068158203306
3670.699109448121 0.0807854498993945
3672.655780990121 0.07767753482290927
3674.612452532121 0.07474320060170872
3676.569124074121 0.07196992989028733
3678.5257956161213 0.06934629825287325
3680.4824671581214 0.06686186325333032
3682.4391387001215 0.06450706625862916
3684.3958102421216 0.062273145344660656
3686.3524817841217 0.06015205791507677
3688.3091533261218 0.0581364118330249
3690.265824868122 0.056219404027191985
3692.222496410122 0.05439476567176612
3694.179167952122 0.05265671315833837
3696.135839494122 0.05099990417941262
3698.0925110361222 0.04941939833059283
3700.0491825781223 0.04791062171380243
3702.0058541201224 0.04646933508885052
3703.9625256621225 0.04509160517680629
3705.9191972041226 0.04377377876725612
3707.8758687461227 0.04251245932367647
3709.832540288123 0.041304485817780394
3711.789211830123 0.040146913555562595
3713.745883372123 0.03903699678554162
3715.702554914123 0.03797217290394214
3717.659226456123 0.0369500480927571
3719.6158979981233 0.035968384245189985
3721.5725695401234 0.03502508704925562
3723.5292410821235 0.03411819511461358
3725.4859126241236 0.033245870040284085
3727.4425841661237 0.03240638733197238
3729.3992557081237 0.03159812808749865
3731.355927250124 0.030819571377461923
3733.312598792124 0.030069287255900468
3735.269270334124 0.029345930342473788
3737.225941876124 0.028648233923689058
3739.182613418124 0.027975004526020652
3741.1392849601243 0.027325116918507877
3743.0959565021244 0.026697509506632494
3745.0526280441245 0.026091180083036375
3747.0092995861246 0.02550518190399404
3748.9659711281247 0.024938620063552536
3750.922642670125 0.02439064813993238
3752.879314212125 0.023860465091184918
3754.835985754125 0.023347312379254567
3756.792657296125 0.022850471303527232
3758.749328838125 0.022369260526682783
3760.7060003801253 0.0219030337772317
3762.6626719221254 0.02145117771452263
3764.6193434641254 0.02101310994327554
3766.5760150061255 0.020588277165839265
3768.5326865481256 0.020176153461405482
3770.4893580901257 0.019776238682345303
3772.446029632126 0.019388056958680063
3774.402701174126 0.01901115530246353
3776.359372716126 0.018645102304546902
3778.316044258126 0.01828948691682801
3780.272715800126 0.017943917313658037
3782.2293873421263 0.017608019826599403
3784.1860588841264 0.017281437947201363
3786.1427304261265 0.016963831392890916
3788.0994019681266 0.016654875231469246
3790.0560735101267 0.016354259060061927
3792.012745052127 0.016061686234698263
3793.969416594127 0.015776873146993622
3795.926088136127 0.015499548544681689
3797.882759678127 0.015229452892993498
3799.839431220127 0.014966337774108744
3801.7961027621272 0.014709965322114552
3803.7527743041273 0.01446010769109905
3805.7094458461274 0.01421654655418353
3807.6661173881275 0.013979072631458962
3809.6227889301276 0.013747485244941389
3811.5794604721277 0.013521591898797697
3813.536132014128 0.01330120788321922
3815.492803556128 0.013086155900436495
3817.449475098128 0
3819.406146640128 0
3821.362818182128 0
3823.3194897241283 0
3825.2761612661284 0
3827.2328328081285 0
3829.1895043501286 0
3831.1461758921287 0
3833.1028474341288 0
3835.059518976129 0
3837.016190518129 0
3838.972862060129 0
3840.929533602129 0
3842.8862051441292 0
3844.8428766861293 0
3846.7995482281294 0
3848.7562197701295 0
3850.7128913121296 0
3852.6695628541297 0
3854.62623439613 0
3856.58290593813 0
3858.53957748013 0
3860.49624902213 0
3862.45292056413 0
3864.4095921061303 0
3866.3662636481304 0
3868.3229351901305 0
3870.2796067321306 0
3872.2362782741307 0
3874.1929498161307 0
3876.149621358131 0
3878.106292900131 0
3880.062964442131 0
3882.019635984131 0
3883.976307526131 0
3885.9329790681313 0
3887.8896506101314 0
3889.8463221521315 0
3891.8029936941316 0
3893.7596652361317 0
3895.716336778132 0
3897.673008320132 0
3899.629679862132 0
3901.586351404132 0
3903.543022946132 0
3905.4996944881323 0
3907.4563660301324 0
3909.4130375721325 0
3911.3697091141325 0
3913.3263806561326 0
3915.2830521981327 0
3917.239723740133 0
3919.196395282133 0
3921.153066824133 0
3923.109738366133 0
3925.066409908133 0
3927.0230814501333 0
3928.9797529921334 0
3930.9364245341335 0
3932.8930960761336 0
3934.8497676181337 0
3936.806439160134 0
3938.763110702134 0
3940.719782244134 0
3942.676453786134 0
3944.633125328134 0
3946.5897968701343 0
3948.5464684121343 0
3950.5031399541344 0
3952.4598114961345 0
3954.4164830381346 0
3956.3731545801347 0
3958.329826122135 0
3960.286497664135 0
3962.243169206135 0
3964.199840748135 0
3966.156512290135 0
3968.1131838321353 0
3970.0698553741354 0
3972.0265269161355 0
3973.9831984581356 0
##END=
