##TITLE=No title given
##JCAMP-DX=5.00 $$ WebMO output
##DATA TYPE=IR SPECTRUM
##DATA CLASS=XYDATA
##DATE=Wed Oct 16 18:16:12 GMT-400 2019
##ORIGIN=WebMO
##OWNER=public domain
##SPECTROMETER/DATA SYSTEM=computed
##XUNITS=1/CM
##YUNITS=ARBITRARY UNITS
##XFACTOR=1.0
##YFACTOR=1.0
##FIRSTX=-242.45
##LASTX=3561.919999999896
##FIRSTY=0
##NPOINTS=2001
##XYDATA=(X++(Y..Y))
-242.45 0
-240.54781499999999 0
-238.64562999999998 0
-236.74344499999998 0
-234.84125999999998 0
-232.93907499999997 0
-231.03688999999997 0
-229.13470499999997 0
-227.23251999999997 0
-225.33033499999996 0
-223.42814999999996 0
-221.52596499999996 0
-219.62377999999995 0
-217.72159499999995 0
-215.81940999999995 0
-213.91722499999995 0
-212.01503999999994 0
-210.11285499999994 0
-208.21066999999994 0
-206.30848499999993 0
-204.40629999999993 0
-202.50411499999993 0
-200.60192999999992 0
-198.69974499999992 0
-196.79755999999992 0
-194.89537499999992 0
-192.9931899999999 0
-191.0910049999999 0
-189.1888199999999 0
-187.2866349999999 0
-185.3844499999999 0
-183.4822649999999 0
-181.5800799999999 0
-179.6778949999999 0
-177.7757099999999 0
-175.8735249999999 0
-173.97133999999988 0
-172.06915499999988 0
-170.16696999999988 0
-168.26478499999988 0
-166.36259999999987 0
-164.46041499999987 0
-162.55822999999987 0
-160.65604499999986 0
-158.75385999999986 0
-156.85167499999986 0
-154.94948999999986 0
-153.04730499999985 0
-151.14511999999985 0
-149.24293499999985 0
-147.34074999999984 0
-145.43856499999984 0
-143.53637999999984 0
-141.63419499999983 0
-139.73200999999983 0
-137.82982499999983 0
-135.92763999999983 0
-134.02545499999982 0
-132.12326999999982 0
-130.22108499999982 0
-128.31889999999981 0
-126.41671499999981 0
-124.51452999999981 0
-122.6123449999998 0
-120.7101599999998 0
-118.8079749999998 0
-116.9057899999998 0
-115.0036049999998 0
-113.10141999999979 0
-111.19923499999979 0
-109.29704999999979 0
-107.39486499999978 0
-105.49267999999978 0
-103.59049499999978 0
-101.68830999999977 0
-99.78612499999977 0
-97.88393999999977 0
-95.98175499999977 0
-94.07956999999976 0
-92.17738499999976 0
-90.27519999999976 0
-88.37301499999975 0
-86.47082999999975 0
-84.56864499999975 0
-82.66645999999974 0.0002444137931034483
-80.76427499999974 0.00024830720944322694
-78.86208999999974 0.00025229417723466696
-76.95990499999974 0.00025637771036596875
-75.05771999999973 0.0002605609447711493
-73.15553499999973 0.0002648471443934637
-71.25334999999973 0.00026923970749064376
-69.35116499999972 0.0002737421733044656
-67.44897999999972 0.0002783582291188354
-65.54679499999972 0.0002830917177324017
-63.644609999999716 0.00028794664537366876
-61.74242499999971 0.0002929271900887227
-59.84023999999971 0.00029803771063399937
-57.93805499999971 0.0003032827559090386
-56.035869999999704 0.00030866707496690724
-54.1336849999997 0.0003141956276429443
-52.2314999999997 0.00031987359584571964
-50.329314999999696 0.00032570639555762256
-48.42712999999969 0.00033169968959633427
-46.52494499999969 0.0003378594011926292
-44.62275999999969 0.0003441917284445162
-42.720574999999684 0.0003507031597127248
-40.81838999999968 0.000357400490027993
-38.91620499999968 0.00036429083858658106
-37.014019999999675 0.00037138166741696116
-35.11183499999967 0.0003786808013077903
-33.20964999999967 0.00038619644909511136
-31.30746499999967 0.00039393722641533214
-29.40527999999967 0.000401912180039981
-27.50309499999967 0.0004101308139186184
-25.600909999999672 0.0004186031170677093
-23.698724999999673 0.0004273395934558301
-21.796539999999673 0.00043635129404944725
-19.894354999999674 0.0004456498511987759
-17.992169999999675 0.000455247515560109
-16.089984999999675 0.00046515719576963586
-14.187799999999676 0.0004753925011043925
-12.285614999999677 0.000485967787388804
-10.383429999999677 0.0004968982064305744
-8.481244999999678 0.0005081997592977304
-6.579059999999678 0.0005198893537797729
-4.6768749999996775 0.0005319848664105284
-2.7746899999996772 0.0005445052094687986
-0.8725049999996772 0.0005574704034158433
1.0296800000003228 0.0005709016552765697
2.9318650000003226 0.0005848214435247372
4.834050000000323 0.0005992536100921827
6.736235000000323 0.0006142234601888847
8.638420000000323 0.0006297578706955162
10.540605000000323 0.0006458854079740694
12.442790000000322 0.0006626364560363848
14.344975000000321 0.000680043356116377
16.24716000000032 0.0006981405588110346
18.14934500000032 0.0007169647900897258
20.05153000000032 0.0007365552326230785
21.95371500000032 0.0007569537240541973
23.855900000000318 0.0007782049740290432
25.758085000000317 0.0008003568020227129
27.660270000000317 0.0008234603982479061
29.562455000000316 0.0008475706102154573
31.464640000000315 0.0008727462578395367
33.36682500000032 0.0008990504803479333
35.26901000000032 0.0009265511186776498
37.171195000000324 0.0009553211375159308
39.07338000000033 0.0009854390916962492
40.97556500000033 0.001016989642288754
42.87775000000033 0.0010500641284481452
44.779935000000336 0.001084761201914147
46.68212000000034 0.0011211875320184922
48.58430500000034 0.0011594585901587343
50.486490000000344 0.001199699523978011
52.38867500000035 0.0012420461329704271
54.29086000000035 0.0012866459589486456
56.19304500000035 0.0013336595068045645
58.095230000000356 0.0013832616133142384
59.99741500000036 0.0014356429844421417
61.89960000000036 0.0014910119247559712
63.801785000000365 0.0015495962862528381
65.70397000000037 0.001611645668217728
67.60615500000037 0.0016774339048006577
69.50834000000037 0.0017472618829469301
71.41052500000038 0.0018214607403081587
73.31271000000038 0.0019003955009934993
75.21489500000038 0.001984469216720026
77.11708000000039 0.002074127692359235
79.01926500000039 0.002169864888372302
80.92145000000039 0.0022722291085536046
82.8236350000004 0.0023818301002943828
84.7258200000004 0.002499347216735753
86.6280050000004 0.002625538816267964
88.5301900000004 0.0027612531054771053
90.4323750000004 0.002907440667511363
92.33456000000041 0.003065168959614076
94.23674500000041 0.0032356391118677184
96.13893000000041 0.003420205414449425
98.04111500000042 0.0036203979429717294
99.94330000000042 0.00383794884011635
101.84548500000042 0.004074822844861119
103.74767000000043 0.0043332527341457825
105.64985500000043 0.004615780408366884
107.55204000000043 0.004925304398619308
109.45422500000043 0.0052651345782525295
111.35641000000044 0.005639054788316044
113.25859500000044 0.0060513938784092875
115.16078000000044 0.006507105230524185
117.06296500000045 0.007011854031982951
118.96515000000045 0.007572110176325526
120.86733500000045 0.008195242366834854
122.76952000000045 0.008889605282711646
124.67170500000046 0.009664605824587901
126.57389000000046 0.010530725475071823
128.47607500000046 0.011499462348542195
130.37826000000047 0.012583136936209825
132.28044500000047 0.013794478264490881
134.18263000000047 0.015145871422534676
136.08481500000048 0.01664810520911571
137.98700000000048 0.018308418614759316
139.88918500000048 0.02012762866391465
141.79137000000048 0.022096173434646423
143.6935550000005 0.024189095766250328
145.5957400000005 0.026360420228123318
147.4979250000005 0.028538107131730963
149.4001100000005 0.030621724372640078
151.3022950000005 0.03248575247190738
153.2044800000005 0.03399119854203924
155.1066650000005 0.035006015351850425
157.0088500000005 0.03543066193051772
158.9110350000005 0.03522088292082383
160.8132200000005 0.03439873541007704
162.71540500000052 0.033047025948273016
164.61759000000052 0.031289634576192674
166.51977500000052 0.029265860834873522
168.42196000000052 0.02710759556814116
170.32414500000053 0.024924580188416222
172.22633000000053 0.022798503650644664
174.12851500000053 0.020783754403568413
176.03070000000054 0.018911828337343752
177.93288500000054 0.01719693346240514
179.83507000000054 0.015641294411326757
181.73725500000054 0.014239489529357866
183.63944000000055 0.01298168052594883
185.54162500000055 0.011855855749413351
187.44381000000055 0.010849297657765877
189.34599500000056 0.009949485619795263
191.24818000000056 0.00914460994530399
193.15036500000056 0.008423830118187155
195.05255000000056 0.007777371787278051
196.95473500000057 0.007196526888279617
198.85692000000057 0.006673599229967219
200.75910500000057 0.0062018225236135874
202.66129000000058 0.005775267491779849
204.56347500000058 0.00538874790794034
206.46566000000058 0.005037731071065013
208.36784500000059 0.004718255498967663
210.2700300000006 0.004426856968184643
212.1722150000006 0.004160503056020558
214.0744000000006 0.003916535800138161
215.9765850000006 0.0036926218182353333
217.8787700000006 0.0034867091190902855
219.7809550000006 0.0032969898193157157
221.6831400000006 0.0031218680154232524
223.5853250000006 0.0029599321223355863
225.4875100000006 0.0028099310617035133
227.38969500000061 0.0026707537572216006
229.29188000000062 0.0025414114645901692
231.19406500000062 0.0024210225283386754
233.09625000000062 0.002308799215398309
234.99843500000063 0.0022040363259491144
236.90062000000063 0.002106101326005035
238.80280500000063 0.0020144257840118028
240.70499000000063 0.001928497926084502
242.60717500000064 0.0018478561520817937
244.50936000000064 0.0017720833781460664
246.41154500000064 0.0017008020912203969
248.31373000000065 0.0016336700179063186
250.21591500000065 0.0015703763243070708
252.11810000000065 0.001510638275603034
254.02028500000065 0.001454198294366305
255.92247000000066 0.0014008213653264945
257.82465500000063 0.001350292741692477
259.7268400000006 0.0013024159144199015
261.6290250000006 0.0012570108111645028
263.53121000000056 0.0012139121962217838
265.43339500000053 0.0011729682466467834
267.3355800000005 0.001134039283076022
269.2377650000005 0.009527065602140937
271.13995000000045 0.00962607830990728
273.0421350000004 0.009729975761781305
274.9443200000004 0.009838760603909851
276.8465050000004 0.009952447236831021
278.74869000000035 0.010071061363523245
280.6508750000003 0.010194639614462968
282.5530600000003 0.010323229243260228
284.4552450000003 0.010456887887372474
286.35743000000025 0.010595683389218296
288.2596150000002 0.010739693673741143
290.1618000000002 0.010889006679122158
292.0639850000002 0.011043720337923835
293.96617000000015 0.011203942606472271
295.8683550000001 0.011369791540764868
297.7705400000001 0.011541395417630395
299.67272500000007 0.011718892900276159
301.57491000000005 0.011902433247739335
303.477095 0.01209217656812146
305.37928 0.01228829411583211
307.28146499999997 0.012490968633404174
309.18364999999994 0.012700394738773465
311.0858349999999 0.012916779359243688
312.9880199999999 0.013140342213687735
314.89020499999987 0.013371316344871745
316.79238999999984 0.013609948704133306
318.6945749999998 0.013856500791002702
320.5967599999998 0.014111249350730944
322.49894499999976 0.014374487133083355
324.40112999999974 0.014646523716177844
326.3033149999997 0.014927686399596391
328.2054999999997 0.015218321171481473
330.10768499999966 0.015518793754851884
332.00986999999964 0.015829490738939214
333.9120549999996 0.016150820801964116
335.8142399999996 0.016483216032446683
337.71642499999956 0.016827133356885335
339.61860999999953 0.017183056082452033
341.5207949999995 0.017551495564247677
343.4229799999995 0.017932993007650114
345.32516499999946 0.01832812141738156
347.22734999999943 0.018737487706133205
349.1295349999994 0.019161734976929926
351.0317199999994 0.01960154499491232
352.93390499999936 0.020057640865876917
354.83608999999933 0.020530789940769793
356.7382749999993 0.021021806967398964
358.6404599999993 0.021531557512944693
360.54264499999925 0.022060961683437057
362.44482999999923 0.022610998169273144
364.3470149999992 0.02318270864910407
366.2491999999992 0.023777202588083867
368.15138499999915 0.02439566247059234
370.0535699999991 0.025039349512187132
371.9557549999991 0.025709609900779123
373.8579399999991 0.026407881622944752
375.76012499999905 0.02713570193798683
377.662309999999 0.027894715569944
379.564494999999 0.028686683696360227
381.466679999999 0.02951349382241021
383.36886499999895 0.030377170640110432
385.2710499999989 0.03127988798503529
387.1732349999989 0.03222398201743933
389.07541999999887 0.03321196577124153
390.97760499999885 0.034246545233279066
392.8797899999988 0.03533063713696827
394.7819749999988 0.03646738867946606
396.68415999999877 0.03766019940012938
398.58634499999874 0.03867084626518285
400.4885299999987 0.03999085220841941
402.3907149999987 0.0413788010758948
404.29289999999867 0.04283937672397511
406.19508499999864 0.044377668012991235
408.0972699999986 0.045999210912459544
409.9994549999986 0.0477100357124923
411.90163999999857 0.04951672004691383
413.80382499999854 0.051426448542455795
415.7060099999985 0.05344708003566418
417.6081949999985 0.055587223448152805
419.51037999999846 0.05785632358555415
421.41256499999844 0.060264758330668994
423.3147499999984 0.0628239489425218
425.2169349999984 0.0655464854569497
427.11911999999836 0.06844626951889858
429.02130499999834 0.07153867737110889
430.9234899999983 0.0748407461893516
432.8256749999983 0.0783713875037084
434.72785999999826 0.08215163209355728
436.63004499999823 0.08620491150815258
438.5322299999982 0.09055738226447813
440.4344149999982 0.09523829983100375
442.33659999999816 0.10028045074319832
444.23878499999813 0.10572065263751691
446.1409699999981 0.11160033365638643
448.0431549999981 0.1179662045825644
449.94533999999805 0.12487103920910203
451.84752499999803 0.13237458081840411
453.749709999998 0.14054459516489895
455.651894999998 0.1494580928924936
457.55407999999795 0.15920274661317244
459.4562649999979 0.16987852947787044
461.3584499999979 0.18159960223115496
463.2606349999979 0.1944964732236258
465.16281999999785 0.20871844867978534
467.0650049999978 0.22443637555255833
468.9671899999978 0.2418456516516281
470.8693749999978 0.2611694298852193
472.77155999999775 0.2826618639820265
474.6737449999977 0.30661111493719
476.5759299999977 0.33334163588435944
478.4781149999977 0.3632149433325909
480.38029999999765 0.3966276184075068
482.2824849999976 0.4340046068099092
484.1846699999976 0.4757849450163805
486.08685499999757 0.5223958067733245
487.98903999999754 0.5742093082226715
489.8912249999975 0.6314751291741997
491.7934099999975 0.6942214495942098
493.69559499999747 0.7621184695138307
495.59777999999744 0.8343053922355882
497.4999649999974 0.9091964805317205
499.4021499999974 0.9843070156190198
501.30433499999737 1.0561729967307003
503.20651999999734 1.1204651352019466
505.1087049999973 1.1723894314290146
507.0108899999973 1.2073914482360686
508.91307499999726 1.2220379209195087
510.81525999999724 1.21480243925224
512.7174449999973 1.186445773585335
514.6196299999973 1.1398240022046995
516.5218149999973 1.079209867961601
518.4239999999974 1.0094079472381676
520.3261849999974 0.9349672832584034
522.2283699999974 0.8596729638577076
524.1305549999975 0.7863425203839304
526.0327399999975 0.7168518632265813
527.9349249999975 0.6522873162087842
529.8371099999976 0.5931389274014951
531.7392949999976 0.5394834265415476
533.6414799999976 0.4911338154940355
535.5436649999976 0.4477507620683195
537.4458499999977 0.40891997273857394
539.3480349999977 0.37420280713737614
541.2502199999977 0.3435988648169068
543.1524049999978 0.3158447943500579
545.0545899999978 0.2909914364276631
546.9567749999978 0.2687016695106907
548.8589599999979 0.2486751495446787
550.7611449999979 0.2306464331855792
552.6633299999979 0.21438215056618964
554.565514999998 0.1996778013999633
556.467699999998 0.18635451420892513
558.369884999998 0.17425595851831205
560.272069999998 0.16324550603423368
562.1742549999981 0.15320367970210577
564.0764399999981 0.14402589601396731
565.9786249999981 0.13562048729872916
567.8808099999982 0.12790698131908704
569.7829949999982 0.1208146116613116
571.6851799999982 0.1142810318198413
573.5873649999983 0.1082512070947837
575.4895499999983 0.10267646054287619
577.3917349999983 0.09751365171339602
579.2939199999984 0.09272446944720944
581.1961049999984 0.08827482244718586
583.0982899999984 0.08413431355520314
585.0004749999985 0.08027578566016996
586.9026599999985 0.07667492890803956
588.8048449999985 0.07330994040026738
590.7070299999986 0.07016122887133726
592.6092149999986 0.06721115795184313
594.5113999999986 0.06444382257455188
596.4135849999986 0.06184485388909374
598.3157699999987 0.0594012487366823
600.2179549999987 0.05710122031756935
602.1201399999987 0.05493406717651839
604.0223249999988 0.05289005804901809
605.9245099999988 0.050960330464873374
607.8266949999988 0.049136801306092354
609.7288799999989 0.04741208777100372
611.6310649999989 0.04577943741335819
613.5332499999989 0.044232666109745876
615.435434999999 0.04276610296600949
617.337619999999 0.04137454130766568
619.239804999999 0.04005319501420689
621.141989999999 0.03879765955552343
623.0441749999991 0.03760387717306616
624.9463599999991 0.03646810572087549
626.8485449999991 0.03538689074400908
628.7507299999992 0.03435704042571057
630.6529149999992 0.0333756030811402
632.5550999999992 0.032439846915707185
634.4572849999993 0.0315472418009117
636.3594699999993 0.030695442850888943
638.2616549999993 0.029882275609205554
640.1638399999994 0.029105722678444353
642.0660249999994 0.0283639116452031
643.9682099999994 0.027655104170732164
645.8703949999995 0.02697768613289225
647.7725799999995 0.026330158718725818
649.6747649999995 0.02571113037896141
651.5769499999996 0.025119309566431464
653.4791349999996 0.024553498189874668
655.3813199999996 0.029505827102392357
657.2835049999996 0.029076290487682115
659.1856899999997 0.028671776415957008
661.0878749999997 0.028291475256867236
662.9900599999997 0.02793464973010348
664.8922449999998 0.027600631768902244
666.7944299999998 0.02728881982517875
668.6966149999998 0.026998676598732417
670.5987999999999 0.02672972717771157
672.5009849999999 0.026481557582201797
674.4031699999999 0.026253813707498786
676.305355 0.026046200668427756
678.20754 0.025858482551067923
680.109725 0.02569048258353119
682.0119100000001 0.025542083743137274
683.9140950000001 0.025413229823546466
685.8162800000001 0.025303926992293103
687.7184650000002 0.025214245876869372
689.6206500000002 0.025144324226223792
691.5228350000002 0.02509437020447814
693.4250200000002 0.02506466638508457
695.3272050000003 0.02505557452683714
697.2293900000003 0.025067541228471362
699.1315750000003 0.02510110457644301
701.0337600000004 0.02515690192136032
702.9359450000004 0.025235678943021485
704.8381300000004 0.02533830019274865
706.7403150000005 0.025465761335483
708.6425000000005 0.025619203353800635
710.5446850000005 0.02579992902262995
712.4468700000006 0.02600942201810859
714.3490550000006 0.0262493690879005
716.2512400000006 0.026521685784602636
718.1534250000007 0.026828546349701915
720.0556100000007 0.02717241843367539
721.9577950000007 0.02755610344836594
723.8599800000007 0.02798278346956219
725.7621650000008 0.028456075737412025
727.6643500000008 0.028980095932841544
729.5665350000008 0.029559531526385137
731.4687200000009 0.0301997265787894
733.3709050000009 0.030906779381856014
735.2730900000009 0.03168765420010911
737.175275000001 0.03255030800766059
739.077460000001 0.033503832349827276
740.979645000001 0.03455860904552502
742.8818300000011 0.03572647599906027
744.7840150000011 0.03702089532411181
746.6862000000011 0.0384571094271567
748.5883850000012 0.04005226038469191
750.4905700000012 0.03348209299330426
752.3927550000012 0.03558336621158968
754.2949400000012 0.03790304640613963
756.1971250000013 0.04046442874799579
758.0993100000013 0.04329025649218044
760.0014950000013 0.046400514733806957
761.9036800000014 0.04980898686380268
763.8058650000014 0.0535181898747704
765.7080500000014 0.057512395216821444
767.6102350000015 0.06174878029305026
769.5124200000015 0.06614750955886049
771.4146050000015 0.07058283495395307
773.3167900000016 0.07487899474609883
775.2189750000016 0.07881605719799495
777.1211600000016 0.08215043245225874
779.0233450000017 0.08465092861985654
780.9255300000017 0.08614388515701882
782.8277150000017 0.08655339808339055
784.7299000000017 0.08592080079733874
786.6320850000018 0.08439486172564992
788.5342700000018 0.08219707121685599
790.4364550000018 0.07957637809433027
792.3386400000019 0.07676891698545285
794.2408250000019 0.0739720148687093
796.1430100000019 0.07133380159766273
798.045195000002 0.06895457182434797
799.947380000002 0.06689460494048169
801.849565000002 0.06518410246427817
803.7517500000021 0.06383260118570128
805.6539350000021 0.06283668506795533
807.5561200000021 0.06218574968138148
809.4583050000022 0.06186603398852955
811.3604900000022 0.06186329249213117
813.2626750000022 0.062164481966032734
815.1648600000022 0.06275877504786079
817.0670450000023 0.06363813750226029
818.9692300000023 0.06479763850330868
820.8714150000023 0.06623561042938204
822.7736000000024 0.06795373625567647
824.6757850000024 0.0699571161120515
826.5779700000024 0.07225434700509228
828.4801550000025 0.07485763853292937
830.3823400000025 0.07778298068616732
832.2845250000025 0.08105037611175092
834.1867100000026 0.0846841475351882
836.0888950000026 0.08871333072010992
837.9910800000026 0.09317216393302352
839.8932650000027 0.09810068604226427
841.7954500000027 0.1035454568366926
843.6976350000027 0.10956041461538138
845.5998200000028 0.1162078872074917
847.5020050000028 0.12355977279467945
849.4041900000028 0.13169890539531995
851.3063750000028 0.14072061532400906
853.2085600000029 0.15073448531158246
855.1107450000029 0.16186628507134873
857.0129300000029 0.17426003602039736
858.915115000003 0.1880801061677068
860.817300000003 0.20351315177035315
862.719485000003 0.2207695910962083
864.6216700000031 0.240084093839201
866.5238550000031 0.26171426723297
868.4260400000031 0.285936280151474
870.3282250000032 0.31303555321841975
872.2304100000032 0.3432898392155624
874.1325950000032 0.3769410695264031
876.0347800000033 0.41415144259459064
877.9369650000033 0.45493886649773074
879.8391500000033 0.49908802056383583
881.7413350000033 0.5460376093018374
883.6435200000034 0.5947539802402403
885.5457050000034 0.6436177113125279
887.4478900000034 0.6903712822882025
889.3500750000035 0.7321933536240536
891.2522600000035 0.7659597900749514
893.1544450000035 0.7887025806333012
895.0566300000036 0.7981843156440056
896.9588150000036 0.7934101550233809
898.8610000000036 0.7905992429211322
900.7631850000037 0.7604158032356559
902.6653700000037 0.7211230414547515
904.5675550000037 0.676866410684715
906.4697400000038 0.6285971707703699
908.3719250000038 0.5797807122877152
910.2741100000038 0.5322531252467884
912.1762950000038 0.48723693358277476
914.0784800000039 0.4454401643708208
915.9806650000039 0.4071823138645514
917.8828500000039 0.3725135670878996
919.785035000004 0.3413122747725689
921.687220000004 0.31335754049271874
923.589405000004 0.2883796388872508
925.4915900000041 0.2660929976332104
927.3937750000041 0.2462164884434841
929.2959600000041 0.22848498044700152
931.1981450000042 0.21265514455782877
933.1003300000042 0.1985076339722247
935.0025150000042 0.18584708759652455
936.9047000000043 0.17450090785350425
938.8068850000043 0.1643174192263852
940.7090700000043 0.15516378144384804
942.6112550000043 0.14692387872323118
944.5134400000044 0.13949630878237967
946.4156250000044 0.13279253419166087
948.3178100000044 0.12673522141844373
950.2199950000045 0.12125677106827108
952.1221800000045 0.11629803068526139
954.0243650000045 0.11180717534305729
955.9265500000046 0.1077387387578527
957.8287350000046 0.10405277727520365
959.7309200000046 0.10071414987580711
961.6331050000047 0.09769189872954759
963.5352900000047 0.09495871645144793
965.4374750000047 0.09249048787394608
967.3396600000048 0.09026589573481283
969.2418450000048 0.08826608113276059
971.1440300000048 0.08647435090073241
973.0462150000048 0.08487592518686614
974.9484000000049 0.0834577195227667
976.8505850000049 0.08220815651089787
978.752770000005 0.08111700299263234
980.654955000005 0.08017522918105494
982.557140000005 0.07937488677249518
984.459325000005 0.07870900350122222
986.3615100000051 0.07817149198454476
988.2636950000051 0.07775707103102839
990.1658800000051 0.07746119786158609
992.0680650000052 0.07728000992945686
993.9702500000052 0.0772102752270868
995.8724350000052 0.07724935014121463
997.7746200000053 0.07739514406675259
999.6768050000053 0.07764609011934857
1001.5789900000053 0.07800112139922374
1003.4811750000054 0.07845965235791222
1005.3833600000054 0.07902156490738384
1007.2855450000054 0.07968719898986754
1009.1877300000054 0.08045734739839992
1011.0899150000055 0.08133325470436714
1012.9921000000055 0.08231662021059329
1014.8942850000055 0.08340960490822365
1016.7964700000056 0.08461484247404996
1018.6986550000056 0.08593545440326225
1020.6008400000056 0.08737506943210877
1022.5030250000057 0.08851083799799986
1024.4052100000056 0.09020810891225826
1026.3073950000055 0.09203842419442573
1028.2095800000054 0.09400773517047473
1030.1117650000053 0.0961226716821917
1032.0139500000053 0.09839059430691459
1033.9161350000052 0.10081965399272053
1035.818320000005 0.10341885995053125
1037.720505000005 0.10619815678486871
1039.622690000005 0.10916851200626515
1041.5248750000048 0.11234201525456873
1043.4270600000048 0.11573199077825337
1045.3292450000047 0.1193531249658544
1047.2314300000046 0.12322161101834965
1049.1336150000045 0.12735531319342808
1051.0358000000044 0.13177395345334567
1052.9379850000043 0.13649932381836727
1054.8401700000043 0.1415555282805922
1056.7423550000042 0.1469692587836017
1058.644540000004 0.15277011053997566
1060.546725000004 0.15899094286265814
1062.448910000004 0.16566829275241687
1064.3510950000039 0.17284284974131736
1066.2532800000038 0.18056000197469382
1068.1554650000037 0.18887046525948706
1070.0576500000036 0.19783100885713087
1071.9598350000035 0.20750529419959884
1073.8620200000034 0.21796484550371592
1075.7642050000034 0.22929017449373051
1077.6663900000033 0.24157208514639344
1079.5685750000032 0.25491318855287654
1081.470760000003 0.269429662608199
1083.372945000003 0.2852532961708042
1085.275130000003 0.3025338623251564
1087.1773150000029 0.3214418699464303
1089.0795000000028 0.34217174606329737
1090.9816850000027 0.3649455021195888
1092.8838700000026 0.3900169328163121
1094.7860550000025 0.4176763830240529
1096.6882400000025 0.44825609035999964
1098.5904250000024 0.4821360591599779
1100.4926100000023 0.5197503314681461
1102.3947950000022 0.561593370634612
1104.2969800000021 0.6082260308122824
1106.199165000002 0.6602802039739868
1108.101350000002 0.7184606487419456
1110.0035350000019 0.7835416238999979
1111.9057200000018 0.8563546663439267
1113.8079050000017 0.9377620604578654
1115.7100900000016 1.028608189375158
1117.6122750000015 1.129638162184277
1119.5144600000015 1.2413704223791835
1121.4166450000014 1.363908852795842
1123.3188300000013 1.496683016821335
1125.2210150000012 1.6381173414267824
1127.1232000000011 1.7852574541012365
1129.025385000001 1.933429138672497
1130.927570000001 2.076067736654045
1132.829755000001 2.2049074238958286
1134.7319400000008 2.3107074109982197
1136.6341250000007 2.3791191481571805
1138.5363100000006 2.4141754698728026
1140.4384950000006 2.406929472865439
1142.3406800000005 2.3582519699410627
1144.2428650000004 2.2730568392553825
1146.1450500000003 2.159129795662328
1148.0472350000002 2.025523797635008
1149.9494200000001 1.8810673743012507
1151.851605 1.7333346473485785
1153.75379 1.58815908265278
1155.655975 1.4495870993165467
1157.5581599999998 1.3201004486514059
1159.4603449999997 1.2009522685298595
1161.3625299999997 1.0925114532204594
1163.2647149999996 0.9945599648073067
1165.1668999999995 0.9183321448157099
1167.0690849999994 0.8396360462192923
1168.9712699999993 0.7692557140440041
1170.8734549999992 0.7063449776793148
1172.7756399999992 0.6500943863993502
1174.677824999999 0.5997539140830277
1176.580009999999 0.5546429468624325
1178.482194999999 0.5141524251527945
1180.3843799999988 0.4777424154422989
1182.2865649999987 0.44493723996856205
1184.1887499999987 0.41531950174587884
1186.0909349999986 0.38852381444290496
1187.9931199999985 0.3642307031988272
1189.8953049999984 0.3421609245278391
1191.7974899999983 0.32207031876072384
1193.6996749999983 0.3037452278868391
1195.6018599999982 0.28699846561139625
1197.504044999998 0.2716658020165291
1199.406229999998 0.25760291402162555
1201.308414999998 0.24468274950603933
1203.2105999999978 0.23279325409330062
1205.1127849999978 0.22183541309303806
1207.0149699999977 0.22026197946589923
1208.9171549999976 0.21105041248049888
1210.8193399999975 0.20253924233801043
1212.7215249999974 0.19466704035035812
1214.6237099999973 0.18737902403052223
1216.5258949999973 0.1806262523625475
1218.4280799999972 0.17436492913058577
1220.330264999997 0.1685557988538129
1222.232449999997 0.16316362216613617
1224.134634999997 0.1581567194363159
1226.0368199999969 0.15350657308926757
1227.9390049999968 0.14918748050344774
1229.8411899999967 0.14517625055876318
1231.7433749999966 0.14145193792640703
1233.6455599999965 0.13799561005419575
1235.5477449999964 0.13479014253221008
1237.4499299999964 0.1318200391441773
1239.3521149999963 0.12907127343733032
1241.2542999999962 0.1265311490920445
1243.156484999996 0.1241881767546957
1245.058669999996 0.12203196532328356
1246.960854999996 0.12005312595415354
1248.8630399999959 0.12917863557284706
1250.7652249999958 0.12770416636953313
1252.6674099999957 0.12638830282429314
1254.5695949999956 0.12522504632385312
1256.4717799999955 0.12420907118269542
1258.3739649999955 0.12333568015961631
1260.2761499999954 0.12867524846719167
1262.1783349999953 0.12817202333872632
1264.0805199999952 0.12780302444714964
1265.9827049999951 0.12756580568942075
1267.884889999995 0.12745840667974362
1269.787074999995 0.12747933639601103
1271.6892599999949 0.1276275604373198
1273.5914449999948 0.12790249173061768
1275.4936299999947 0.1283039845684889
1277.3958149999946 0.12883233190190035
1279.2979999999945 0.12948826585219414
1281.2001849999945 0.13027296144645806
1283.1023699999944 0.13118804362037256
1285.0045549999943 0.1322355975734458
1286.9067399999942 0.13341818260396854
1288.8089249999941 0.13473884959584026
1290.711109999994 0.13620116237749746
1292.613294999994 0.13780922322545563
1294.5154799999939 0.13956770284250442
1296.4176649999938 0.14148187520456174
1298.3198499999937 0.14355765774194407
1300.2220349999936 0.14580165740191633
1302.1242199999936 0.1482212232316451
1304.0264049999935 0.15082450622622195
1305.9285899999934 0.1536205273077138
1307.8307749999933 0.15661925444116448
1309.7329599999932 0.15983169005555115
1311.6351449999931 0.16326997012596975
1313.537329999993 0.16694747649260727
1315.439514999993 0.17087896424808005
1317.341699999993 0.17508070632427108
1319.2438849999928 0.17957065776093742
1321.1460699999927 0.18436864255064878
1323.0482549999927 0.18949656643936505
1324.9504399999926 0.19497865963254093
1326.8526249999925 0.20084175402878554
1328.7548099999924 0.20711560039522933
1330.6569949999923 0.2138332318322665
1332.5591799999922 0.22103138097486838
1334.4613649999922 0.22875095967110717
1336.363549999992 0.23703761139680454
1338.265734999992 0.2459423484414996
1340.167919999992 0.2555222879688686
1342.0701049999918 0.26584150344525576
1343.9722899999917 0.27697201066552557
1345.8744749999917 0.28899491069029254
1347.7766599999916 0.3020017154128472
1349.6788449999915 0.31609588510797
1351.5810299999914 0.3313946109873231
1353.4832149999913 0.34803087914010494
1355.3853999999913 0.36615585464780365
1357.2875849999912 0.385941625076352
1359.189769999991 0.4075843392447078
1361.091954999991 0.4313077673776433
1362.994139999991 0.45736728809244004
1364.8963249999908 0.4860542693071606
1366.7985099999908 0.5177007435600182
1368.7006949999907 0.552684167407693
1370.6028799999906 0.5914318756920949
1372.5050649999905 0.6344245598507615
1374.4072499999904 0.6821976663651791
1376.3094349999903 0.7353389620400053
1378.2116199999903 0.7944795685389483
1380.1138049999902 0.8447126320593236
1382.01598999999 0.9180457003271772
1383.91817499999 0.999241717819484
1385.82035999999 1.0877024185072328
1387.7225449999899 1.1855542698084212
1389.6247299999898 1.291386213407612
1391.5269149999897 1.4040725580467728
1393.4290999999896 1.521482558112799
1395.3312849999895 1.6402381756965991
1397.2334699999894 1.7556033866784009
1399.1356549999894 1.861645909399203
1401.0378399999893 1.9518006544132898
1402.9400249999892 2.0198588870669894
1404.842209999989 2.061206112195834
1406.744394999989 2.0739258880872953
1408.646579999989 2.059336074090678
1410.5487649999889 2.021723660016494
1412.4509499999888 1.9673975606505696
1414.3531349999887 1.903451915652272
1416.2553199999886 1.836664435923154
1418.1575049999885 1.7727827383542794
1420.0596899999884 1.716232969880651
1421.9618749999884 1.670142370404248
1423.8640599999883 1.6365267415901443
1425.7662449999882 1.6165183915004895
1427.6684299999881 1.6105552231579625
1429.570614999988 1.618491156548375
1431.472799999988 1.63961534044024
1433.3749849999879 1.6725869267185123
1435.2771699999878 1.7153114313859459
1437.1793549999877 1.7648102878756213
1439.0815399999876 1.8171669395631438
1440.9837249999875 1.8676578120850391
1442.8859099999875 1.9111662746504385
1444.7880949999874 1.9429000750660692
1446.6902799999873 1.959286299542609
1448.5924649999872 1.9587683044506001
1450.4946499999871 1.9421918700944667
1452.396834999987 1.9126118471885087
1454.299019999987 1.8746057616165226
1456.2012049999869 1.833378154532156
1458.1033899999868 1.7939623131500486
1460.0055749999867 1.760701607346705
1461.9077599999866 1.7370340708988372
1463.8099449999866 1.7255000895148165
1465.7121299999865 1.7278628382895311
1467.6143149999864 1.7452479358130342
1469.5164999999863 1.7782403965565372
1471.4186849999862 1.826904897987478
1473.3208699999861 1.8907156128182325
1475.223054999986 1.9683988819160676
1477.125239999986 2.057713353177664
1479.027424999986 2.1552239008374974
1480.9296099999858 2.2561662341582123
1482.8317949999857 2.354531860585859
1484.7339799999856 2.44349228087756
1486.6361649999856 2.516187488661556
1488.5383499999855 2.566727579342413
1490.4405349999854 2.5910833465050658
1492.3427199999853 2.58751825773823
1494.2449049999852 2.5564181772502903
1496.1470899999852 2.4996963402669454
1498.049274999985 2.4201499751218436
1499.951459999985 2.321071453603242
1501.853644999985 2.206152479986324
1503.7558299999848 2.0794919044301077
1505.6580149999847 1.945489254370706
1507.5601999999847 1.808551333322571
1509.4623849999846 1.6727040073994677
1511.3645699999845 1.5412609815116554
1513.2667549999844 1.4166504566094331
1515.1689399999843 1.3004120263750474
1517.0711249999842 1.1933149619978956
1518.9733099999842 1.0955327546132727
1520.875494999984 1.0068222261498843
1522.777679999984 0.926677862677777
1524.679864999984 0.8544507257637756
1526.5820499999838 0.789432682838684
1528.4842349999838 0.7309118375232551
1530.3864199999837 0.6782062805682931
1532.2886049999836 0.6306826100410099
1534.1907899999835 0.5877643317837927
1536.0929749999834 0.5489338815082319
1537.9951599999833 0.5137308611654932
1539.8973449999833 0.4817482109345711
1541.7995299999832 0.4526274167506541
1543.701714999983 0.42605342857545836
1545.603899999983 0.4017496837072156
1547.506084999983 0.3794734488722107
1549.4082699999828 0.35901158204821765
1551.3104549999828 0.3401767468015402
1553.2126399999827 0.3228040725080148
1555.1148249999826 0.3067482325656606
1557.0170099999825 0.2918809026346182
1558.9191949999824 0.2780885575691084
1560.8213799999824 0.2652705661845492
1562.7235649999823 0.2533375455494921
1564.6257499999822 0.24220994001660995
1566.527934999982 0.23181679406056716
1568.430119999982 0.22209469180208713
1570.332304999982 0.21298683966832066
1572.2344899999819 0.20444227187627773
1574.1366749999818 0.1964151612975189
1576.0388599999817 0.1888642207729699
1577.9410449999816 0.18175218211998784
1579.8432299999815 0.17504534194189164
1581.7454149999814 0.1687131649481404
1583.6475999999814 0.16272793685577072
1585.5497849999813 0.15706446010181965
1587.4519699999812 0.15169978658136452
1589.3541549999811 0.14661298246218993
1591.256339999981 0.14178492083729005
1593.158524999981 0.1371980985796655
1595.0607099999809 0.1328364742766159
1596.9628949999808 0.12868532455692663
1598.8650799999807 0.1247311164958359
1600.7672649999806 0.12096139409943611
1602.6694499999805 0.1173646771406407
1604.5716349999805 0.21651547429840945
1606.4738199999804 0.21486792927537732
1608.3760049999803 0.2134032124910345
1610.2781899999802 0.2121141987488
1612.1803749999801 0.21099442328680165
1614.08255999998 0.21003803182905584
1615.98474499998 0.20923973596433432
1617.8869299999799 0.20859477328777498
1619.7891149999798 0.20809887181104042
1621.6912999999797 0.20774821820837455
1623.5934849999796 0.2075394295195654
1625.4956699999796 0.20746952797771168
1627.3978549999795 0.20753591867077237
1629.3000399999794 0.20773636978196397
1631.2022249999793 0.2080689951858616
1633.1044099999792 0.2085322392051579
1635.0065949999791 0.2091248633579493
1636.908779999979 0.20984593494760495
1638.810964999979 0.2106948173671057
1640.713149999979 0.2116711620075615
1642.6153349999788 0.21277490167671032
1644.5175199999787 0.21400624544782876
1646.4197049999786 0.2036788843907899
1648.3218899999786 0.20534806181733892
1650.2240749999785 0.2071429375369767
1652.1262599999784 0.2090649269714322
1654.0284449999783 0.2111157108628
1655.9306299999782 0.21329723793146418
1657.8328149999782 0.21561172872414175
1659.734999999978 0.21806168065973064
1661.637184999978 0.22064987428978053
1663.539369999978 0.22337938079956982
1665.4415549999778 0.22625357078507127
1667.3437399999777 0.22927612435062675
1669.2459249999777 0.23245104258203791
1671.1481099999776 0.23578266046012925
1673.0502949999775 0.2392756612907595
1674.9524799999774 0.24293509273888758
1676.8546649999773 0.2467663845667577
1678.7568499999772 0.2507753681897092
1680.6590349999772 0.2549682981777009
1682.561219999977 0.25935187584653013
1684.463404999977 0.2639332751001373
1686.365589999977 0.26872017070451293
1688.2677749999768 0.2652682205081156
1690.1699599999768 0.2706221388846368
1692.0721449999767 0.2762048984809033
1693.9743299999766 0.28202660776022637
1695.8765149999765 0.2880980583902799
1697.7786999999764 0.29443077340797813
1699.6808849999763 0.3010370598123136
1701.5830699999763 0.30793006601837875
1703.4852549999762 0.31512384465631216
1705.387439999976 0.3226334212557549
1707.289624999976 0.33047486942046567
1709.191809999976 0.3386653931700693
1711.0939949999758 0.3472234172076758
1712.9961799999758 0.35616868596470186
1714.8983649999757 0.3655223723792294
1716.8005499999756 0.37530719748350777
1718.7027349999755 0.38554756201188367
1720.6049199999754 0.39626969139502466
1722.5071049999754 0.4075017956826948
1724.4092899999753 0.4192742461389337
1726.3114749999752 0.43161977048424727
1728.213659999975 0.44457366902397516
1730.115844999975 0.4473511115238621
1732.018029999975 0.46180671229974946
1733.9202149999749 0.4769907023482647
1735.8223999999748 0.49295146496327275
1737.7245849999747 0.5097414479763511
1739.6267699999746 0.5274175730858182
1741.5289549999745 0.5400297058692299
1743.4311399999744 0.5597621833576327
1745.3333249999744 0.580581127996295
1747.2355099999743 0.6025665826946021
1749.1376949999742 0.6258059768294096
1751.0398799999741 0.6503949442043487
1752.942064999974 0.6764382463721369
1754.844249999974 0.7040508167178755
1756.7464349999739 0.7333589431978144
1758.6486199999738 0.7645016105632434
1760.5508049999737 0.7976320263542257
1762.4529899999736 0.8329193590189331
1764.3551749999735 0.8705507213151168
1766.2573599999735 0.9107334378146257
1768.1595449999734 0.9536976420166909
1770.0617299999733 0.9996992564632174
1771.9639149999732 1.049023418549171
1773.8660999999731 1.101988425670647
1775.768284999973 1.1589502862152017
1777.670469999973 1.2203079779547303
1779.5726549999729 1.2865095329349872
1781.4748399999728 1.3580590882269634
1783.3770249999727 1.4355250650975457
1785.2792099999726 1.5195496652940346
1787.1813949999726 1.6108599019441867
1789.0835799999725 1.7102804132516427
1790.9857649999724 1.8187483380350915
1792.8879499999723 1.9373305600895265
1794.7901349999722 2.067243647876329
1796.6923199999721 2.209876818000852
1798.594504999972 2.366818220299342
1800.496689999972 2.5398847550307067
1802.398874999972 2.731155450541128
1804.3010599999718 2.9430080933708958
1806.2032449999717 3.1781582205184207
1808.1054299999716 3.43969861647414
1810.0076149999716 3.7311358985168837
1811.9097999999715 4.056418321212031
1813.8119849999714 4.419945161556181
1815.7141699999713 4.8265423961770475
1817.6163549999712 5.28138116885234
1819.5185399999712 5.78980409333195
1821.420724999971 6.357009426373269
1823.322909999971 6.9875254313951185
1825.225094999971 7.684390449984014
1827.1272799999708 8.447947402793396
1829.0294649999707 9.27418296987747
1830.9316499999707 10.152622157660355
1832.8338349999706 11.063968206149115
1834.7360199999705 11.97798469207634
1836.6382049999704 12.852518356855557
1838.5403899999703 13.634886295121
1840.4425749999702 14.266750556460561
1842.3447599999702 14.692688414115642
1844.24694499997 14.870920635173055
1846.14912999997 14.782872407055056
1848.05131499997 14.437801507542995
1849.9534999999698 13.870463415816696
1851.8556849999698 13.13285293395875
1853.7578699999697 12.28343672068828
1855.6600549999696 11.377571864023684
1857.5622399999695 10.461318915633502
1859.4644249999694 9.568964278863971
1861.3666099999693 8.723335816945518
1863.2687949999693 7.937652952190053
1865.1709799999692 7.217879055983928
1867.073164999969 6.564947848801195
1868.975349999969 5.9765837593396
1870.877534999969 5.448657470505494
1872.7797199999688 4.9761274643257
1874.6819049999688 4.553655947283618
1876.5840899999687 4.175987773048411
1878.4862749999686 3.838166190713261
1880.3884599999685 3.5356412301151336
1882.2906449999684 3.264310410731775
1884.1928299999684 3.0205187928586534
1886.0950149999683 2.8010361391064933
1887.9971999999682 2.603022509796627
1889.899384999968 2.423989274759221
1891.801569999968 2.261759676382168
1893.703754999968 2.114431254095776
1895.6059399999679 1.9803412987103552
1897.5081249999678 1.8580358099509025
1899.4103099999677 1.7462420225124984
1901.3124949999676 1.6438443392029125
1903.2146799999675 1.5498633952252237
1905.1168649999674 1.4634379309545593
1907.0190499999674 1.3838091434528594
1908.9212349999673 1.3103072017651305
1910.8234199999672 1.242339636868478
1912.7256049999671 1.1793813474572619
1914.627789999967 1.1209659937382792
1916.529974999967 1.0666785809807549
1918.4321599999669 1.016149061666082
1920.3343449999668 0.9690468092885803
1922.2365299999667 0.9250758381120798
1924.1387149999666 0.8839706616287605
1926.0408999999665 0.8454926983369089
1927.9430849999665 0.8094271470329615
1929.8452699999664 0.7755802653849097
1931.7474549999663 0.7437769953891255
1933.6496399999662 0.7138588876573568
1935.5518249999661 0.6856822835542079
1937.454009999966 0.6591167201992921
1939.356194999966 0.6340435284277033
1941.2583799999659 0.6103545981088635
1943.1605649999658 0.5879512888775189
1945.0627499999657 0.5667434674334859
1946.9649349999656 0.5466486552047195
1948.8671199999656 0.5275912724138675
1950.7693049999655 0.5095019665026146
1952.6714899999654 0.49231701450215093
1954.5736749999653 0.4759777903350764
1956.4758599999652 0.4604302892302483
1958.3780449999651 0.44562470245799174
1960.280229999965 0.4315150364743671
1962.182414999965 0.4180587713214757
1964.084599999965 0.4052165537843037
1965.9867849999648 0.39295192136876994
1967.8889699999647 0.38123105365345783
1969.7911549999646 0.37002254799001316
1971.6933399999646 0.3592972168937008
1973.5955249999645 0.349027904784081
1975.4977099999644 0.3391893220129151
1977.3998949999643 0.32975789435799746
1979.3020799999642 0.3207116263725091
1981.2042649999642 0.31202997716389536
1983.106449999964 0.3036937473377483
1985.008634999964 0.2956849759837907
1986.910819999964 0.2879868467054349
1988.8130049999638 0.28058360180378855
1990.7151899999637 0.27346046382333417
1992.6173749999637 0.266603563751504
1994.5195599999636 0.2599998752394376
1996.4217449999635 0.25363715427760863
1998.3239299999634 0.24750388381880867
2000.2261149999633 0.24158922289312063
2002.1282999999632 0.23588295980582047
2004.0304849999632 0.23037546905030754
2005.932669999963 0.22505767160481407
2007.834854999963 0.21992099831429976
2009.737039999963 0.2149573560880825
2011.6392249999628 0.2101590966697958
2013.5414099999628 0.20551898775954322
2015.4435949999627 0.20103018628898195
2017.3457799999626 0.19668621366875094
2019.2479649999625 0.19248093284444087
2021.1501499999624 0.18840852701237104
2023.0523349999623 0.18446347985999037
2024.9545199999623 0.18064055720792582
2026.8567049999622 0.17693478994169262
2028.758889999962 0.17334145813100485
2030.661074999962 0.1698560762435805
2032.563259999962 0.16647437936843035
2034.4654449999618 0.16319231037094867
2036.3676299999618 0.16000600790875327
2038.2698149999617 0.15691179524323737
2040.1719999999616 0.15390616978725102
2042.0741849999615 0.15098579333428097
2043.9763699999614 0.14814748291900204
2045.8785549999614 0.1453882022631666
2047.7807399999613 0.14270505376452652
2049.6829249999614 0.1400952709898807
2051.5851099999613 0.13755621163643555
2053.4872949999613 0.1350853509284963
2055.389479999961 0.13268027541908559
2057.291664999961 0.13033867716844869
2059.193849999961 0.1280583482735618
2061.096034999961 0.1258371757247368
2062.998219999961 0.12367313656722703
2064.9004049999608 0.12156429334739792
2066.8025899999607 0.11950878982454977
2068.7047749999606 0.11750484693087847
2070.6069599999605 0.11555075896334405
2072.5091449999604 0.11364488999239897
2074.4113299999603 0.11178567047361401
2076.3135149999603 0.10997159404924035
2078.21569999996 0.1082012145276686
2080.11788499996 0.10647314302959357
2082.02006999996 0.10478604529047984
2083.92225499996 0.10313863910964324
2085.82443999996 0
2087.7266249999598 0
2089.6288099999597 0
2091.5309949999596 0
2093.4331799999595 0
2095.3353649999594 0
2097.2375499999594 0
2099.1397349999593 0
2101.041919999959 0
2102.944104999959 0
2104.846289999959 0
2106.748474999959 0
2108.650659999959 0
2110.552844999959 0
2112.4550299999587 0
2114.3572149999586 0
2116.2593999999585 0
2118.1615849999584 0
2120.0637699999584 0
2121.9659549999583 0
2123.868139999958 0
2125.770324999958 0
2127.672509999958 0
2129.574694999958 0
2131.476879999958 0
2133.379064999958 0
2135.2812499999577 0
2137.1834349999576 0
2139.0856199999575 0
2140.9878049999575 0
2142.8899899999574 0
2144.7921749999573 0
2146.694359999957 0
2148.596544999957 0
2150.498729999957 0
2152.400914999957 0
2154.303099999957 0
2156.205284999957 0
2158.1074699999567 0
2160.0096549999566 0
2161.9118399999566 0
2163.8140249999565 0
2165.7162099999564 0
2167.6183949999563 0
2169.520579999956 0
2171.422764999956 0
2173.324949999956 0
2175.227134999956 0
2177.129319999956 0
2179.031504999956 0
2180.9336899999557 0
2182.8358749999556 0
2184.7380599999556 0
2186.6402449999555 0
2188.5424299999554 0
2190.4446149999553 0
2192.3467999999552 0
2194.248984999955 0
2196.151169999955 0
2198.053354999955 0
2199.955539999955 0
2201.857724999955 0
2203.7599099999547 0
2205.6620949999547 0
2207.5642799999546 0
2209.4664649999545 0
2211.3686499999544 0
2213.2708349999543 0
2215.1730199999542 0
2217.075204999954 0
2218.977389999954 0
2220.879574999954 0
2222.781759999954 0
2224.683944999954 0
2226.5861299999538 0
2228.4883149999537 0
2230.3904999999536 0
2232.2926849999535 0
2234.1948699999534 0
2236.0970549999533 0
2237.9992399999533 0
2239.901424999953 0
2241.803609999953 0
2243.705794999953 0
2245.607979999953 0
2247.510164999953 0
2249.4123499999528 0
2251.3145349999527 0
2253.2167199999526 0
2255.1189049999525 0
2257.0210899999524 0
2258.9232749999524 0
2260.8254599999523 0
2262.727644999952 0
2264.629829999952 0
2266.532014999952 0
2268.434199999952 0
2270.336384999952 0
2272.238569999952 0
2274.1407549999517 0
2276.0429399999516 0
2277.9451249999515 0
2279.8473099999514 0
2281.7494949999514 0
2283.6516799999513 0
2285.553864999951 0
2287.456049999951 0
2289.358234999951 0
2291.260419999951 0
2293.162604999951 0
2295.064789999951 0
2296.9669749999507 0
2298.8691599999506 0
2300.7713449999505 0
2302.6735299999505 0
2304.5757149999504 0
2306.4778999999503 0
2308.38008499995 0
2310.28226999995 0
2312.18445499995 0
2314.08663999995 0
2315.98882499995 0
2317.89100999995 0
2319.7931949999497 0
2321.6953799999496 0
2323.5975649999496 0
2325.4997499999495 0
2327.4019349999494 0
2329.3041199999493 0
2331.206304999949 0
2333.108489999949 0
2335.010674999949 0
2336.912859999949 0
2338.815044999949 0
2340.717229999949 0
2342.6194149999487 0
2344.5215999999486 0
2346.4237849999486 0
2348.3259699999485 0
2350.2281549999484 0
2352.1303399999483 0
2354.0325249999482 0
2355.934709999948 0
2357.836894999948 0
2359.739079999948 0
2361.641264999948 0
2363.543449999948 0
2365.4456349999477 0
2367.3478199999477 0
2369.2500049999476 0
2371.1521899999475 0
2373.0543749999474 0
2374.9565599999473 0
2376.8587449999472 0
2378.760929999947 0
2380.663114999947 0
2382.565299999947 0
2384.467484999947 0
2386.369669999947 0
2388.2718549999468 0
2390.1740399999467 0
2392.0762249999466 0
2393.9784099999465 0
2395.8805949999464 0
2397.7827799999463 0
2399.6849649999463 0
2401.587149999946 0
2403.489334999946 0
2405.391519999946 0
2407.293704999946 0
2409.195889999946 0
2411.0980749999458 0
2413.0002599999457 0
2414.9024449999456 0
2416.8046299999455 0
2418.7068149999454 0
2420.6089999999454 0
2422.5111849999453 0
2424.413369999945 0
2426.315554999945 0
2428.217739999945 0
2430.119924999945 0
2432.022109999945 0
2433.924294999945 0
2435.8264799999447 0
2437.7286649999446 0
2439.6308499999445 0
2441.5330349999444 0
2443.4352199999444 0
2445.3374049999443 0
2447.239589999944 0
2449.141774999944 0
2451.043959999944 0
2452.946144999944 0
2454.848329999944 0
2456.750514999944 0
2458.6526999999437 0
2460.5548849999436 0
2462.4570699999435 0
2464.3592549999435 0
2466.2614399999434 0
2468.1636249999433 0
2470.065809999943 0
2471.967994999943 0
2473.870179999943 0
2475.772364999943 0
2477.674549999943 0
2479.576734999943 0
2481.4789199999427 0
2483.3811049999426 0
2485.2832899999426 0
2487.1854749999425 0
2489.0876599999424 0
2490.9898449999423 0
2492.892029999942 0
2494.794214999942 0
2496.696399999942 0
2498.598584999942 0
2500.500769999942 0
2502.402954999942 0
2504.3051399999417 0
2506.2073249999416 0
2508.1095099999416 0
2510.0116949999415 0
2511.9138799999414 0
2513.8160649999413 0
2515.7182499999412 0
2517.620434999941 0
2519.522619999941 0
2521.424804999941 0
2523.326989999941 0
2525.229174999941 0
2527.1313599999407 0
2529.0335449999407 0
2530.9357299999406 0
2532.8379149999405 0
2534.7400999999404 0
2536.6422849999403 0
2538.5444699999402 0
2540.44665499994 0
2542.34883999994 0
2544.25102499994 0
2546.15320999994 0
2548.05539499994 0
2549.9575799999398 0
2551.8597649999397 0
2553.7619499999396 0
2555.6641349999395 0
2557.5663199999394 0
2559.4685049999393 0
2561.3706899999393 0
2563.272874999939 0
2565.175059999939 0
2567.077244999939 0
2568.979429999939 0
2570.881614999939 0
2572.7837999999388 0
2574.6859849999387 0
2576.5881699999386 0
2578.4903549999385 0
2580.3925399999384 0
2582.2947249999384 0
2584.1969099999383 0
2586.099094999938 0
2588.001279999938 0
2589.903464999938 0
2591.805649999938 0
2593.707834999938 0
2595.610019999938 0
2597.5122049999377 0
2599.4143899999376 0
2601.3165749999375 0
2603.2187599999374 0
2605.1209449999374 0
2607.0231299999373 0
2608.925314999937 0
2610.827499999937 0
2612.729684999937 0
2614.631869999937 0
2616.534054999937 0
2618.436239999937 0
2620.3384249999367 0
2622.2406099999366 0
2624.1427949999365 0
2626.0449799999365 0
2627.9471649999364 0
2629.8493499999363 0
2631.751534999936 0
2633.653719999936 0
2635.555904999936 0
2637.458089999936 0
2639.360274999936 0
2641.262459999936 0
2643.1646449999357 0
2645.0668299999356 0
2646.9690149999356 0
2648.8711999999355 0
2650.7733849999354 0
2652.6755699999353 0
2654.577754999935 0
2656.479939999935 0.09079834482758621
2658.382124999935 0.09224472702593842
2660.284309999935 0.09372586306064004
2662.186494999935 0.09524287257414928
2664.088679999935 0.09679692054825612
2665.9908649999347 0.09838921951946035
2667.8930499999346 0.10002103192133191
2669.7952349999346 0.10169367256221733
2671.6974199999345 0.10340851124727926
2673.5996049999344 0.10516697555452932
2675.5017899999343 0.10697055377524842
2677.4039749999342 0.10882079802997939
2679.306159999934 0.11071932757214013
2681.208344999934 0.11266783229223881
2683.110529999934 0.11466807643668916
2685.012714999934 0.1167219025563296
2686.914899999934 0.11883123570095055
2688.8170849999337 0.1209980878774454
2690.7192699999337 0.12322456279062557
2692.6214549999336 0.12551286088729685
2694.5236399999335 0.12786528472589162
2696.4258249999334 0.1302842446958048
2698.3280099999333 0.13277226511260895
2700.2301949999332 0.1353319907175387
2702.132379999933 0.1379661936120606
2704.034564999933 0.14067778066100295
2705.936749999933 0.1434698014006303
2707.838934999933 0.14634545649124717
2709.741119999933 0.14930810675742232
2711.6433049999328 0.1523612828627835
2713.5454899999327 0.15550869567057599
2715.4476749999326 0.1587542473458485
2717.3498599999325 0.16210204326027874
2719.2520449999324 0.1655564047663266
2721.1542299999323 0.16912188291367006
2723.0564149999323 0.17280327318780575
2724.958599999932 0.1766056313583507
2726.860784999932 0.180534290533064
2728.762969999932 0.18459487952300105
2730.665154999932 0.1887933426346339
2732.567339999932 0.1931359610163462
2734.4695249999318 0.19762937569957076
2736.3717099999317 0.20228061248915405
2738.2738949999316 0.2070971088734719
2740.1760799999315 0.21208674314259882
2742.0782649999314 0.2172578659226827
2743.9804499999314 0.22261933435685277
2745.8826349999313 0.2281805491878102
2747.784819999931 0.2339514950250496
2749.687004999931 0.23994278411084136
2751.589189999931 0.24616570393411685
2753.491374999931 0.2526322690807627
2755.393559999931 0.25935527775314365
2757.295744999931 0.26634837344162304
2759.1979299999307 0.2736261122872178
2761.1001149999306 0.2812040367382372
2763.0022999999305 0.28909875617584413
2764.9044849999304 0.2973280352651752
2766.8066699999304 0.30591089088136464
2768.7088549999303 0.3148676985651643
2770.61103999993 0.3242203095827474
2772.51322499993 0.3339921798009215
2774.41540999993 0.3442085117449336
2776.31759499993 0.3548964113843304
2778.21977999993 0.36608506139643543
2780.12196499993 0.3778059128910375
2782.0241499999297 0.3900928978486501
2783.9263349999296 0.402982664833855
2785.8285199999295 0.4165148409014197
2787.7307049999295 0.4307323230238908
2789.6328899999294 0.4456816028444431
2791.5350749999293 0.46141312910877375
2793.437259999929 0.4779817127676582
2795.339444999929 0.49544698048265307
2797.241629999929 0.5138738831293984
2799.143814999929 0.5333332668974782
2801.045999999929 0.5556478950686029
2802.948184999929 0.577439457964429
2804.8503699999287 0.6005189244685638
2806.7525549999286 0.6249880439448257
2808.6547399999286 0.6509586165893543
2810.5569249999285 0.6785536814790926
2812.4591099999284 0.7079088672778788
2814.3612949999283 0.7391739306980689
2816.263479999928 0.7725145120647968
2818.165664999928 0.8081141423435483
2820.067849999928 0.8461765419084816
2821.970034999928 0.8869282583102059
2823.872219999928 0.9306216985330682
2825.774404999928 0.9775386209234427
2827.6765899999277 1.0279941633547267
2829.5787749999276 1.082341497520605
2831.4809599999276 1.140977214767395
2833.3831449999275 1.2043475668183317
2835.2853299999274 1.2729557052701523
2837.1875149999273 1.347370086876461
2839.0896999999272 1.4282342371295798
2840.991884999927 1.5162780918060068
2842.894069999927 1.612331163462417
2844.796254999927 1.7173378045900916
2846.698439999927 1.8323748564203486
2848.600624999927 1.958671974101243
2850.5028099999267 2.09763489184914
2852.4049949999267 2.2508718143860342
2854.3071799999266 2.4202229597720537
2856.2093649999265 2.6077929809953124
2858.1115499999264 2.822151823154071
2860.0137349999263 3.0538025307550196
2861.9159199999262 3.311919376470503
2863.818104999926 3.5999971299042954
2865.720289999926 3.9219297692945725
2867.622474999926 4.281988953773339
2869.524659999926 4.684751859216709
2871.426844999926 5.134947438912148
2873.3290299999258 5.637176884812599
2875.2312149999257 6.195448385993319
2877.1333999999256 6.812451408395936
2879.0355849999255 7.488489705058827
2880.9377699999254 8.22001132096599
2882.8399549999253 8.997745069490096
2884.7421399999253 9.80461160887275
2886.644324999925 10.61384888702093
2888.546509999925 11.388147244902578
2890.448694999925 12.080877221786603
2892.350879999925 12.640404079151336
2894.253064999925 13.017673369231638
2896.1552499999248 13.175706556457547
2898.0574349999247 13.098063420017855
2899.9596199999246 12.792938460819025
2901.8618049999245 12.291094286753012
2903.7639899999244 11.6385521019397
2905.6661749999244 10.887061395938344
2907.5683599999243 10.085619399302228
2909.470544999924 9.274994986285254
2911.372729999924 8.485535736446957
2913.274914999924 7.737447283009388
2915.177099999924 7.042430843475623
2917.079284999924 6.405765329429831
2918.981469999924 5.828277942582927
2920.8836549999237 5.307955383312157
2922.7858399999236 4.848076066032169
2924.6880249999235 4.43042426323274
2926.5902099999234 4.05710111203324
2928.4923949999234 3.7234564207462504
2930.3945799999233 3.425104189056726
2932.296764999923 3.158018547268805
2934.198949999923 2.918569795728714
2936.101134999923 2.7035244588424474
2938.003319999923 2.5100250803348567
2939.905504999923 2.33555978240064
2941.807689999923 2.177927769121164
2943.7098749999227 2.035204434072833
2945.6120599999226 1.905708117063113
2947.5142449999225 1.7879695443765358
2949.4164299999225 1.6807043717349655
2951.3186149999224 1.5827888880747076
2953.2207999999223 1.4932387375846445
2955.122984999922 1.4111904161459397
2957.025169999922 1.3358852570426087
2958.927354999922 1.2666556145917685
2960.829539999922 1.202912967527148
2962.731724999922 1.1441376869305682
2964.633909999922 1.0898702404541458
2966.5360949999217 1.0397036321457327
2968.4382799999216 0.9932769035280723
2970.3404649999216 0.950269545762211
2972.2426499999215 0.9103966943780136
2974.1448349999214 0.8734049971318467
2976.0470199999213 0.8390690621834228
2977.949204999921 0.807188408187866
2979.851389999921 0.7775848503263844
2981.753574999921 0.7501002670020378
2983.655759999921 0.724594701140819
2985.557944999921 0.7009447579675628
2987.460129999921 0.6790422679368943
2989.3623149999207 0.6587931893082611
2991.2644999999206 0.6401167297150347
2993.1666849999206 0.6229446699605014
2995.0688699999205 0.6072208760302473
2996.9710549999204 0.5929009866221117
2998.8732399999203 0.5799522627904669
3000.7754249999202 0.5683535826348911
3002.67760999992 0.5580955558317655
3004.57979499992 0.5491807178936838
3006.48197999992 0.5416237388615521
3008.38416499992 0.535451540594683
3010.28634999992 0.5307031537499269
3012.1885349999197 0.5274290503697234
3014.0907199999197 0.5256895491417595
3015.9929049999196 0.5255516963527572
3017.8950899999195 0.5270837709686231
3019.7972749999194 0.5303462616545028
3021.6994599999193 0.5353778784388742
3023.6016449999192 0.5421750469064622
3025.503829999919 0.5506636999350991
3027.406014999919 0.5606635517952447
3029.308199999919 0.5718480901153667
3031.210384999919 0.5837087439353242
3033.112569999919 0.5955385213476857
3035.0147549999188 0.606455942953421
3036.9169399999187 0.6154883875686243
3038.8191249999186 0.62171840395561
3040.7213099999185 0.6244668391838891
3042.6234949999184 0.6234562206501747
3044.5256799999183 0.6188903434388279
3046.4278649999183 0.6114155375715056
3048.330049999918 0.6019813216406288
3050.232234999918 0.5916585548270256
3052.134419999918 0.5814779737779657
3054.036604999918 0.5723267009169305
3055.938789999918 0.5649080834162163
3057.8409749999178 0.5597492572931803
3059.7431599999177 0.5572349672585664
3061.6453449999176 0.5576499690518752
3063.5475299999175 0.5612191196402602
3065.4497149999174 0.5681400381036344
3067.3518999999174 0.5786067583806679
3069.2540849999173 0.5928243200146741
3071.156269999917 0.6110143886920524
3073.058454999917 0.6334113140777486
3074.960639999917 0.6602468787669977
3076.862824999917 0.6917206210379766
3078.765009999917 0.7279513299505548
3080.667194999917 0.7689046876047736
3082.5693799999167 0.8142931703831807
3084.4715649999166 0.8634490479891934
3086.3737499999165 0.9151820201146843
3088.2759349999164 0.9676514304059519
3090.1781199999164 1.0183071113830793
3092.0803049999163 1.0639724373165382
3093.982489999916 1.1011371051034602
3095.884674999916 1.1264721691152522
3097.786859999916 1.137474906891164
3099.689044999916 1.1330436353464146
3101.591229999916 1.1137561456737757
3103.493414999916 1.0817297234688343
3105.3955999999157 1.0401252514452977
3107.2977849999156 0.9925006447331608
3109.1999699999155 0.9422357456070445
3111.1021549999155 0.8921614417976685
3113.0043399999154 0.8444119550736316
3114.9065249999153 0.8004452509821665
3116.808709999915 0.7611559257063109
3118.710894999915 0.727018537014387
3120.613079999915 0.6982236137012402
3122.515264999915 0.6747894874016453
3124.417449999915 0.65664635250066
3126.319634999915 0.6436954817760058
3128.2218199999147 0.6358486784958497
3130.1240049999146 0.6330528942555685
3132.0261899999145 0.6353037982749403
3133.9283749999145 0.642650619199893
3135.8305599999144 0.6551930562474975
3137.7327449999143 0.5832053238473454
3139.634929999914 0.6079612970813421
3141.537114999914 0.638306461571069
3143.439299999914 0.6742951461885208
3145.341484999914 0.7158183947092707
3147.243669999914 0.7624894622002947
3149.145854999914 0.8134994490638754
3151.0480399999137 0.8674559375692372
3152.9502249999136 0.9222382107802439
3154.8524099999136 0.9749297641236735
3156.7545949999135 1.0219107827865939
3158.6567799999134 1.0591864582089814
3160.5589649999133 1.0829651969799237
3162.4611499999132 1.090382792015121
3164.363334999913 1.0801478210688118
3166.265519999913 1.0528538009293558
3168.167704999913 1.010820881404551
3170.069889999913 0.9575373183297841
3171.972074999913 0.896931450978146
3173.8742599999127 0.8327238813151493
3175.7764449999127 0.7680090865360517
3177.6786299999126 0.7050877379326574
3179.5808149999125 0.64548781084078
3181.4829999999124 0.5900894195815573
3183.3851849999123 0.5392836202019794
3185.2873699999122 0.49312272015542946
3187.189554999912 0.45144316696547804
3189.091739999912 0.4139570417320685
3190.993924999912 0.38031558910417734
3192.896109999912 0.3501507544855506
3194.798294999912 0.3231007154124834
3196.7004799999117 0.2988243948738896
3198.6026649999117 0.27700872702368684
3200.5048499999116 0.257371356207292
3202.4070349999115 0.23966059430568343
3204.3092199999114 0.2236538363822769
3206.2114049999113 0.209155199217807
3208.1135899999113 0.1959928540453248
3210.015774999911 0.1840163324330272
3211.917959999911 0.17309396101906505
3213.820144999911 0.163110503698285
3215.722329999911 0.15396504293564678
3217.624514999911 0.145569104347709
3219.5266999999108 0.13784501340410912
3221.4288849999107 0.13072446539197777
3223.3310699999106 0.12414728665604452
3225.2332549999105 0.11806036466890434
3227.1354399999104 0.11241672550532154
3229.0376249999103 0.10717473905661803
3230.9398099999103 0.10229743438424159
3232.84199499991 0.09775190971865602
3234.74417999991 0.0935088236191983
3236.64636499991 0.08954195565169983
3238.54854999991 0.08582782658506227
3240.45073499991 0.08234536955178456
3242.35291999991 0.07907564487031764
3244.2551049999097 0.07600159230544373
3246.1572899999096 0.0731078154656552
3248.0594749999095 0.070380393823056
3249.9616599999094 0.06780671850996906
3251.8638449999094 0.06537534861392193
3253.7660299999093 0.06307588517386928
3255.668214999909 0.06089886048838049
3257.570399999909 0.05883564069228339
3259.472584999909 0.056878339851504936
3261.374769999909 0.05501974407474791
3263.276954999909 0.05325324435210149
3265.179139999909 0.05157277701053918
3267.0813249999087 0.04997277082942913
3268.9835099999086 0.0484480999898089
3270.8856949999085 0.04699404214274089
3272.7878799999085 0.04560624097749435
3274.6900649999084 0.04428067275205711
3276.5922499999083 0.043013616318637204
3278.494434999908 0.041801626237115766
3280.396619999908 0.0406415086213285
3282.298804999908 0.037802876831487
3284.200989999908 0.03676456259366809
3286.103174999908 0.03576922691022941
3288.005359999908 0.03481450380564993
3289.9075449999077 0.033898188767941206
3291.8097299999076 0.033018225691963186
3293.7119149999075 0.03217269503521108
3295.6140999999075 0.03135980305971065
3297.5162849999074 0.030577872048182318
3299.4184699999073 0.029825331395342075
3301.320654999907 0.02910070948634359
3303.222839999907 0.0284026262841401
3305.125024999907 0.02772978655613593
3307.027209999907 0.02708097367806009
3308.929394999907 0.026455043959661303
3310.831579999907 0.02585092144270898
3312.7337649999067 0.02526759312698757
3314.6359499999066 0.024704104584577304
3316.5381349999066 0.024159555926796895
3318.4403199999065 0.023633098091807393
3320.3425049999064 0.023123929424097144
3322.2446899999063 0.022631292519933406
3324.1468749999062 0.022154471315420154
3326.049059999906 0.021692788396079413
3327.951244999906 0.021245602508908216
3329.853429999906 0.020812306259683166
3331.755614999906 0.02039232397991319
3333.657799999906 0.019985109749301833
3335.5599849999057 0.01959014556089022
3337.4621699999057 0.01920693961722924
3339.3643549999056 0.012732120234761207
3341.2665399999055 0.012465525004320204
3343.1687249999054 0.012207182605352867
3345.0709099999053 0.011956757239028415
3346.9730949999052 0.011713929945685875
3348.875279999905 0.011478397605624474
3350.777464999905 0.0112498720081121
3352.679649999905 0.01102807898336235
3354.581834999905 0.010812757592678563
3356.484019999905 0.010603659372369869
3358.3862049999047 0.010400547627412781
3360.2883899999047 0.010203196771166562
3362.1905749999046 0.010011391707754898
3364.0927599999045 0.009824927254003073
3365.9949449999044 0.009643607598071783
3367.8971299999043 0.009467245792158309
3369.7993149999043 0.009295663276844996
3371.701499999904 0.009128689434866156
3373.603684999904 0.008966161172238817
3375.505869999904 0.008807922524862427
3377.408054999904 0.008653824288838357
3379.310239999904 0.008503723672893653
3381.2124249999038 0.008357483971415936
3383.1146099999037 0.008214974256718351
3385.0167949999036 0.008076069089256585
3386.9189799999035 0.007940648244614332
3388.8211649999034 0.0078085964561604325
3390.7233499999033 0.007679803172360809
3392.6255349999033 0.007554162327801631
3394.527719999903 0.007431572127047848
3396.429904999903 0.007311934840523493
3398.332089999903 0.007195156611657501
3400.234274999903 0.007081147274591884
3402.136459999903 0.006969820181797814
3404.0386449999028 0
3405.9408299999027 0
3407.8430149999026 0
3409.7451999999025 0
3411.6473849999024 0
3413.5495699999024 0
3415.4517549999023 0
3417.353939999902 0
3419.256124999902 0
3421.158309999902 0
3423.060494999902 0
3424.962679999902 0
3426.864864999902 0
3428.7670499999017 0
3430.6692349999016 0
3432.5714199999015 0
3434.4736049999015 0
3436.3757899999014 0
3438.2779749999013 0
3440.180159999901 0
3442.082344999901 0
3443.984529999901 0
3445.886714999901 0
3447.788899999901 0
3449.691084999901 0
3451.5932699999007 0
3453.4954549999006 0
3455.3976399999005 0
3457.2998249999005 0
3459.2020099999004 0
3461.1041949999003 0
3463.0063799999 0
3464.9085649999 0
3466.8107499999 0
3468.7129349999 0
3470.6151199999 0
3472.5173049999 0
3474.4194899998997 0
3476.3216749998996 0
3478.2238599998996 0
3480.1260449998995 0
3482.0282299998994 0
3483.9304149998993 0
3485.8325999998992 0
3487.734784999899 0
3489.636969999899 0
3491.539154999899 0
3493.441339999899 0
3495.343524999899 0
3497.2457099998987 0
3499.1478949998987 0
3501.0500799998986 0
3502.9522649998985 0
3504.8544499998984 0
3506.7566349998983 0
3508.6588199998982 0
3510.561004999898 0
3512.463189999898 0
3514.365374999898 0
3516.267559999898 0
3518.169744999898 0
3520.0719299998977 0
3521.9741149998977 0
3523.8762999998976 0
3525.7784849998975 0
3527.6806699998974 0
3529.5828549998973 0
3531.4850399998973 0
3533.387224999897 0
3535.289409999897 0
3537.191594999897 0
3539.093779999897 0
3540.995964999897 0
3542.8981499998968 0
3544.8003349998967 0
3546.7025199998966 0
3548.6047049998965 0
3550.5068899998964 0
3552.4090749998963 0
3554.3112599998963 0
3556.213444999896 0
3558.115629999896 0
3560.017814999896 0
3561.919999999896 0
##END=
