##TITLE=No title given
##JCAMP-DX=5.00 $$ WebMO output
##DATA TYPE=IR SPECTRUM
##DATA CLASS=XYDATA
##DATE=Wed Oct 16 18:14:08 GMT-400 2019
##ORIGIN=WebMO
##OWNER=public domain
##SPECTROMETER/DATA SYSTEM=computed
##XUNITS=1/CM
##YUNITS=ARBITRARY UNITS
##XFACTOR=1.0
##YFACTOR=1.0
##FIRSTX=81.57999999999998
##LASTX=4119.539999999866
##FIRSTY=0
##NPOINTS=2001
##XYDATA=(X++(Y..Y))
81.57999999999998 0
83.59897999999998 0
85.61795999999998 0
87.63693999999998 0
89.65591999999998 0
91.67489999999998 0
93.69387999999998 0
95.71285999999998 0
97.73183999999998 0
99.75081999999998 0
101.76979999999998 0
103.78877999999997 0
105.80775999999997 0
107.82673999999997 0
109.84571999999997 0
111.86469999999997 0
113.88367999999997 0
115.90265999999997 0
117.92163999999997 0
119.94061999999997 0
121.95959999999997 0
123.97857999999997 0
125.99755999999996 0
128.01653999999996 0
130.03551999999996 0
132.05449999999996 0
134.07347999999996 0
136.09245999999996 0
138.11143999999996 0
140.13041999999996 0
142.14939999999996 0
144.16837999999996 0
146.18735999999996 0
148.20633999999995 0
150.22531999999995 0
152.24429999999995 0
154.26327999999995 0
156.28225999999995 0
158.30123999999995 0
160.32021999999995 0
162.33919999999995 0
164.35817999999995 0
166.37715999999995 0
168.39613999999995 0
170.41511999999994 0
172.43409999999994 0
174.45307999999994 0
176.47205999999994 0
178.49103999999994 0
180.51001999999994 0
182.52899999999994 0
184.54797999999994 0
186.56695999999994 0
188.58593999999994 0
190.60491999999994 0
192.62389999999994 0
194.64287999999993 0
196.66185999999993 0
198.68083999999993 0
200.69981999999993 0
202.71879999999993 0
204.73777999999993 0
206.75675999999993 0
208.77573999999993 0
210.79471999999993 0
212.81369999999993 0
214.83267999999993 0
216.85165999999992 0
218.87063999999992 0
220.88961999999992 0
222.90859999999992 0
224.92757999999992 0
226.94655999999992 0
228.96553999999992 0
230.98451999999992 0
233.00349999999992 0
235.02247999999992 0
237.04145999999992 0
239.06043999999991 0
241.0794199999999 0.079176
243.0983999999999 0.08051566138642959
245.1173799999999 0.08188953056450012
247.1363599999999 0.08329877926495177
249.1553399999999 0.08474462969249398
251.1743199999999 0.09486615025409756
253.1932999999999 0.09653523776773801
255.2122799999999 0.09824865546391667
257.2312599999999 0.10000798318209944
259.2502399999999 0.10181487158549515
261.2692199999999 0.10367104599504798
263.2881999999999 0.10557831046708316
265.3071799999999 0.10753855213241141
267.3261599999999 0.10955374581617063
269.3451399999999 0.11162595895929166
271.3641199999999 0.1137573568642351
273.3830999999999 0.11595020828956884
275.4020799999999 0.11820689142006534
277.4210599999999 0.12052990024130578
279.4400399999999 0.12292185135031113
281.4590199999999 0.12538549123650158
283.4779999999999 0.12792370407033815
285.4969799999999 0.1305395200403609
287.5159599999999 0.13323612428303205
289.5349399999999 0.13601686645386485
291.5539199999999 0.13888527099280545
293.5728999999999 0.14184504814178955
295.5918799999999 0.14490010577786283
297.6108599999999 0.14805456213130458
299.6298399999999 0.15131275946488387
301.6488199999999 0.15467927879779214
303.6677999999999 0.15815895576601544
305.6867799999999 0.1617568977200337
307.7057599999999 0.16547850217087276
309.7247399999999 0.16932947670680973
311.7437199999999 0.1733158605155911
313.7626999999999 0.17744404766101698
315.7816799999999 0.18172081227836742
317.8006599999999 0.1861533358705977
319.8196399999999 0.19074923690675014
321.8386199999999 0.19551660294589146
323.8575999999999 0.20046402553439605
325.8765799999999 0.20560063815191199
327.8955599999999 0.21093615751227718
329.9145399999999 0.21648092856046194
331.9335199999999 0.22224597354584516
333.9524999999999 0.22824304559639422
335.9714799999999 0.23448468726834304
337.99045999999987 0.24098429460255497
340.00943999999987 0.24775618728289256
342.02841999999987 0.2548156855646845
344.04739999999987 0.26217919472407597
346.06637999999987 0.26986429787316507
348.08535999999987 0.2778898580930937
350.10433999999987 0.28627613095972176
352.12331999999986 0.2950448886765172
354.14229999999986 0.30421955718963106
356.16127999999986 0.31382536784403264
358.18025999999986 0.3238895253508795
360.19923999999986 0.3344413940794667
362.21821999999986 0.34551270496743824
364.23719999999986 0.3571377856666788
366.25617999999986 0.36935381691681557
368.27515999999986 0.38220111857228795
370.29413999999986 0.3957234692128377
372.31311999999986 0.40996846385335795
374.33209999999985 0.42498791495196275
376.35107999999985 0.4408383027123744
378.37005999999985 0.45758128160912526
380.38903999999985 0.47528425115658157
382.40801999999985 0.4940210002252667
384.42699999999985 0.5138724357171903
386.44597999999985 0.5349274081888309
388.46495999999985 0.5572836491076395
390.48393999999985 0.5810488369074457
392.50291999999985 0.6063418119444345
394.52189999999985 0.6332939639379848
396.54087999999985 0.6620508196171301
398.55985999999984 0.6927738632126745
400.57883999999984 0.7256426282913152
402.59781999999984 0.7608571064053848
404.61679999999984 0.7986405263481062
406.63577999999984 0.8392425677162099
408.65475999999984 0.8829430842883231
410.67373999999984 0.9300564267714011
412.69271999999984 0.9809364711325927
414.71169999999984 1.035982478435432
416.73067999999984 1.0956459352596926
418.74965999999984 1.1604385507874404
420.76863999999983 1.2309416177442876
422.78761999999983 1.3078169795848775
424.80659999999983 1.3918198850767873
426.82557999999983 1.4838140523073975
428.84455999999983 1.5847893040474292
430.86353999999983 1.6958821695862807
432.88251999999983 1.8183998643871448
434.9014999999998 1.9538480407274146
436.9204799999998 2.10396262077846
438.9394599999998 2.2707458307144144
440.9584399999998 2.456506173737001
442.9774199999998 2.66390138972399
444.9963999999998 2.8959822597404745
447.0153799999998 3.1562331345961194
449.0343599999998 3.448601865940993
451.0533399999998 3.777506778371783
453.0723199999998 4.1478006138856465
455.0912999999998 4.564660020646155
457.1102799999998 5.033353263980055
459.1292599999998 5.5588183564555464
461.1482399999998 6.1449611591732936
463.1672199999998 6.793566273201103
465.1861999999998 7.502721519810415
467.2051799999998 8.264724719269214
469.2241599999998 9.063621133877476
471.2431399999998 9.87285914105666
473.2621199999998 10.654030140965151
475.2810999999998 11.358103747667258
477.3000799999998 11.930292478852268
479.3190599999998 12.319113416563036
481.3380399999998 12.48716314174436
483.3570199999998 12.420058462034463
485.3759999999998 12.129449621590787
487.3949799999998 11.648861188164878
489.4139599999998 11.024680434752774
491.4329399999998 10.306421409697737
493.4519199999998 9.539467051837455
495.4708999999998 8.761245283985287
497.4898799999998 8.000122045845592
499.5088599999998 7.275860073379412
501.5278399999998 6.6008026764315035
503.5468199999998 5.981331953576999
505.5657999999998 5.419360821990849
507.5847799999998 4.913702172881598
509.6037599999998 4.461214586869334
511.6227399999998 4.057683317430326
513.6417199999999 3.6984463415360516
515.6606999999999 3.378806105549832
517.67968 3.0942780643291283
519.69866 2.840724135920447
521.7176400000001 2.614410135549985
523.7366200000001 2.412016053806961
525.7556000000002 2.2306191288011106
527.7745800000002 2.067662791216424
529.7935600000003 1.9209196593459723
531.8125400000004 1.788453446022091
533.8315200000004 1.668582487625895
535.8505000000005 1.5598462579847836
537.8694800000005 1.4609754164328668
539.8884600000006 1.3708654691410287
541.9074400000006 1.2885538676009942
543.9264200000007 1.2132002438991798
545.9454000000007 1.1440694355166312
547.9643800000008 1.0805169492904247
549.9833600000009 1.0219765342992244
552.0023400000009 0.9679495644662215
554.021320000001 0.9179959664391425
556.040300000001 0.8717264628186482
558.0592800000011 0.8287959329961981
560.0782600000011 0.7888977228023548
562.0972400000012 0.7517587595830733
564.1162200000012 0.7171353512998472
566.1352000000013 0.6848095670555687
568.1541800000014 0.6545861124241582
570.1731600000014 0.6262896264683645
572.1921400000015 0.5997623387120319
574.2111200000015 0.617044930457604
576.2301000000016 0.5943569134767849
578.2490800000016 0.5730694797188426
580.2680600000017 0.5530779480877728
582.2870400000018 0.5342873692546739
584.3060200000018 0.5166114889307695
586.3250000000019 0.4999718364932499
588.3439800000019 0.4842969222918844
590.362960000002 0.4695215293721209
592.381940000002 0.4555860873874531
594.4009200000021 0.44243611820021117
596.4199000000021 0.43002174413559485
598.4388800000022 0.4182972511003642
600.4578600000023 0.40722069983984954
602.4768400000023 0.3967535795138129
604.4958200000024 0.3868604985473992
606.5148000000024 0.37750890837821816
608.5337800000025 0.36866885629145946
610.5527600000025 0.36031276402611545
612.5717400000026 0.3524152292588364
614.5907200000026 0.34495284743775617
616.6097000000027 0.33790405175530225
618.6286800000028 0.3312489693237397
620.6476600000028 0.32496929185608064
622.6666400000029 0.31904815936318276
624.6856200000029 0.3134700555597728
626.704600000003 0.30822071383150773
628.723580000003 0.30328703275524227
630.7425600000031 0.298657000288162
632.7615400000032 0.29431962585074883
634.7805200000032 0.29026487962571873
636.7995000000033 0.2864836384819073
638.8184800000033 0.28296763801014935
640.8374600000034 0.2797094302288802
642.8564400000034 0.2767023465817227
644.8754200000035 0.27394046590882054
646.8944000000035 0.2714185871291319
648.9133800000036 0.26913220642324637
650.9323600000037 0.26707749875634346
652.9513400000037 0.26525130362946536
654.9703200000038 0.2636511149949638
656.9893000000038 0.2622750753193678
659.0082800000039 0.2611219738243158
661.0272600000039 0.2601912489836175
663.046240000004 0.2594829954014196
665.065220000004 0.25899797524140533
667.0842000000041 0.2587376344170655
669.1031800000042 0.2587041237830497
671.1221600000042 0.2589003255783388
673.1411400000043 0.2593298853482694
675.1601200000043 0.2599972494895407
677.1791000000044 0.2609077083806793
679.1980800000044 0.2620674447180318
681.2170600000045 0.2634835860791178
683.2360400000046 0.2651642597394236
685.2550200000046 0.2671186461728856
687.2740000000047 0.2693570251993849
689.2929800000047 0.2718908050836109
691.3119600000048 0.27473251975594376
693.3309400000048 0.2778957727179566
695.3499200000049 0.28139509894825654
697.3689000000049 0.2852457109725978
699.387880000005 0.28946309853316277
701.406860000005 0.294062474800996
703.4258400000051 0.29905812315886243
705.4448200000052 0.30446281314259815
707.4638000000052 0.31028761508510394
709.4827800000053 0.316542583077437
711.5017600000053 0.3232387430556895
713.5207400000054 0.33039144205694604
715.5397200000054 0.3380243901190708
717.5587000000055 0.34617304666226695
719.5776800000056 0.354885990094162
721.5966600000056 0.2853856445541037
723.6156400000057 0.29671638654748744
725.6346200000057 0.30878595749641685
727.6536000000058 0.32727261705942806
729.6725800000058 0.3411610583775126
731.6915600000059 0.3474439420849509
733.710540000006 0.36355924998162775
735.729520000006 0.38086318120379437
737.7485000000061 0.39946803724408014
739.7674800000061 0.41949834500857874
741.7864600000062 0.44109322007831986
743.8054400000062 0.46440888140100417
745.8244200000063 0.4896214056583328
747.8434000000063 0.5169298196370539
749.8623800000064 0.5465596344462874
751.8813600000065 0.5787669317706581
753.9003400000065 0.6138431217557208
755.9193200000066 0.6521205051044622
757.9383000000066 0.710853546726257
759.9572800000067 0.7570129977807454
761.9762600000067 0.8076941130347441
763.9952400000068 0.8634702948041805
766.0142200000068 0.9250015383124731
768.0332000000069 0.993048494615177
770.052180000007 1.068488587439102
772.071160000007 1.1523342271034949
774.0901400000071 1.2457529600678856
776.1091200000071 1.3500890241887697
778.1281000000072 1.466885147336176
780.1470800000072 1.5979023776319037
782.1660600000073 1.745134039783968
784.1850400000073 1.910807249131898
786.2040200000074 2.097361349067363
788.2230000000075 2.307386654526962
790.2419800000075 2.543498530820049
792.2609600000076 2.8081111100759393
794.2799400000076 3.103063173600685
796.2989200000077 3.429040257012386
798.3179000000077 3.7847419391407993
800.3368800000078 4.1657803682632455
802.3558600000079 4.563392965496863
804.3748400000079 4.963234246602403
806.393820000008 5.344767527232077
808.412800000008 5.681999740389007
810.4317800000081 5.9462495848073775
812.4507600000081 6.111031838073748
814.4697400000082 6.157985504982809
816.4887200000082 6.081689694653188
818.5077000000083 5.891188820244435
820.5266800000084 5.607474745314966
822.5456600000084 5.258152777861855
824.5646400000085 4.871607892513045
826.5836200000085 4.472612535367673
828.6026000000086 4.0801229633702105
830.6215800000086 3.7069641800630335
832.6405600000087 3.360656292252688
834.6595400000087 3.0446816510218326
836.6785200000088 2.7597409358845173
838.6975000000089 2.504788495479707
840.7164800000089 2.2777961870010874
842.735460000009 2.076273649737434
844.754440000009 1.897599450403002
846.7734200000091 1.7392176153048589
848.7924000000091 1.5987440711478644
850.8113800000092 1.474015755877203
852.8303600000093 1.3631049905758392
854.8493400000093 1.264313985949663
856.8683200000094 1.1761589148854528
858.8873000000094 1.097349323108251
860.9062800000095 1.0267662724309687
862.9252600000095 0.9634411091441802
864.9442400000096 0.9065358258944927
866.9632200000096 0.8553254328239513
868.9822000000097 0.8091824352498835
871.0011800000098 0.7675633412556647
873.0201600000098 0.7299970360907463
875.0391400000099 0.6960748253223985
877.0581200000099 0.6654419429962539
879.07710000001 0.6377903310895939
881.09608000001 0.6128525141772534
883.1150600000101 0.5903964137593201
885.1340400000101 0.5702209674859063
887.1530200000102 0.552152438178578
889.1720000000103 0.5360413154591932
891.1909800000103 0.5217597287562221
893.2099600000104 0.5091993045079835
895.2289400000104 0.4982694126892241
897.2479200000105 0.60794955168074
899.2669000000105 0.6020874736859888
901.2858800000106 0.5977293810978702
903.3048600000106 0.5948462815774586
905.3238400000107 0.5934228447465923
907.3428200000108 0.5934573643989323
909.3618000000108 0.5949619728236695
911.3807800000109 0.5979631151002223
913.3997600000109 0.6025022971797995
915.418740000011 0.6086371272097766
917.437720000011 0.61644267456439
919.4567000000111 0.6260131747880716
921.4756800000112 0.6374641099935499
923.4946600000112 0.6509346912276701
925.5136400000113 0.6665907586720261
927.5326200000113 0.6846280920011557
929.5516000000114 0.7052760783566367
931.5705800000114 0.7288016060277025
933.5895600000115 0.7555129178578742
935.6085400000115 0.7857629395316567
937.6275200000116 0.8199512512130203
939.6465000000117 0.858523338916711
941.6654800000117 0.9019649761869997
943.6844600000118 0.9507884866540052
945.7034400000118 1.0055062227701126
947.7224200000119 1.0665850402852297
949.7414000000119 1.1343744267722697
951.760380000012 1.2090015886370438
953.779360000012 1.2902317046569696
955.7983400000121 1.377277998284888
957.8173200000122 1.4687553715022943
959.8363000000122 1.5624487598837735
961.8552800000123 1.6555261429570922
963.8742600000123 1.7448869562913805
965.8932400000124 1.827815767308988
967.9122200000124 1.9027694849174615
969.9312000000125 1.9700077553688538
971.9501800000126 2.0317708444457314
973.9691600000126 2.0918951841344735
975.9881400000127 2.1550151007242606
978.0071200000127 2.2256390941142334
980.0261000000128 2.3073358871381293
982.0450800000128 2.402108940520865
984.0640600000129 2.50991405591625
986.0830400000129 2.628254103865577
988.102020000013 2.751863896296389
990.121000000013 2.8726335750796106
992.1399800000131 2.9800400136243663
994.1589600000132 3.0623556107764442
996.1779400000132 3.10867132117134
998.1969200000133 3.111312173738464
1000.2159000000133 3.067789988542651
1002.2348800000134 2.981427755561063
1004.2538600000134 2.8603590448280194
1006.2728400000135 2.7153962539201113
1008.2918200000136 2.557696308013432
1010.3108000000136 2.397001681248493
1012.3297800000137 2.240756316472578
1014.3487600000137 2.093976909521939
1016.3677400000138 1.9595809133617106
1018.3867200000138 1.8388911124800467
1020.4057000000139 1.7321360726410129
1022.424680000014 1.638862600379524
1024.443660000014 1.5582399016925774
1026.462640000014 1.489266598855909
1028.4816200000141 1.430902362390691
1030.5006000000142 1.3821459463402044
1032.5195800000142 1.34207741976652
1034.5385600000143 1.3098776863942687
1036.5575400000143 1.2848343200178802
1038.5765200000144 1.266339660526148
1040.5955000000145 1.2538849430591883
1042.6144800000145 1.2470527737155606
1044.6334600000146 1.245509319131916
1046.6524400000146 1.2489969817057367
1048.6714200000147 1.2573279682004397
1050.6904000000147 1.2703789446591909
1052.7093800000148 1.288086850119773
1054.7283600000148 1.2684429750966708
1056.747340000015 1.2961944073217362
1058.766320000015 1.3287339057650962
1060.785300000015 1.3662213508103362
1062.804280000015 1.4088732201268932
1064.8232600000151 1.4569653090143762
1066.8422400000152 1.5108366892257223
1068.8612200000152 1.5708950022755337
1070.8802000000153 1.6376232194519125
1072.8991800000153 1.7115880411389603
1074.9181600000154 1.793450153072328
1076.9371400000155 1.883976607143118
1078.9561200000155 1.9840556493229449
1080.9751000000156 2.094714376428207
1082.9940800000156 2.2171396646021764
1085.0130600000157 2.352702870985398
1087.0320400000157 2.5029888574380754
1089.0510200000158 2.6698299060810418
1091.0700000000159 2.8553450647241045
1093.088980000016 3.0619853324730526
1095.107960000016 3.2925848008917975
1097.126940000016 3.5504172897223802
1099.145920000016 3.8392569771360923
1101.1649000000161 4.167954223030459
1103.1838800000162 4.532509828677196
1105.2028600000162 4.942973973002806
1107.2218400000163 5.405617747307711
1109.2408200000164 5.927312167101584
1111.2598000000164 6.515355182553504
1113.2787800000165 7.177116194478206
1115.2977600000165 7.919397324053388
1117.3167400000166 8.747377454600976
1119.3357200000166 9.66298115480949
1121.3547000000167 10.662528433897569
1123.3736800000167 11.733625966608145
1125.3926600000168 12.851533870372444
1127.4116400000169 13.975755784038656
1129.430620000017 15.048322015158533
1131.449600000017 15.995863387572596
1133.468580000017 16.737423809528565
1135.487560000017 17.199267138877435
1137.5065400000171 17.327538414024517
1139.5255200000172 17.10793511373242
1141.5445000000173 16.565975552907176
1143.5634800000173 15.760897578224474
1145.5824600000174 14.770604238824635
1147.6014400000174 13.675198938776283
1149.6204200000175 12.544589201991506
1151.6394000000175 11.432267189351188
1153.6583800000176 10.37442044510603
1155.6773600000176 9.39226410109979
1157.6963400000177 8.495617115178568
1159.7153200000178 7.686447301208923
1161.7343000000178 6.961793346782195
1163.7532800000179 6.315920563190457
1165.772260000018 5.741789209841371
1167.791240000018 5.231989033314849
1169.810220000018 4.779293879560993
1171.829200000018 4.376962033492125
1173.8481800000181 4.018874748481425
1175.8671600000182 3.6995767240732396
1177.8861400000183 3.4142605088597944
1179.9051200000183 3.158721446130571
1181.9241000000184 2.9292994515752793
1183.9430800000184 2.7228172019784074
1185.9620600000185 2.5365200746676053
1187.9810400000185 2.3680205688533253
1190.0000200000186 2.2152483801755096
1192.0190000000187 2.0764064005629406
1194.0379800000187 1.949932424309441
1196.0569600000188 1.8344660967800421
1198.0759400000188 1.7288205429882115
1200.0949200000189 1.6319580966332097
1202.113900000019 1.5429695777715504
1204.132880000019 1.4610566162280159
1206.151860000019 1.3855165747957743
1208.170840000019 1.3101563254461295
1210.1898200000192 1.2456664740165004
1212.2088000000192 1.1858942298777209
1214.2277800000193 1.1304086906640562
1216.2467600000193 1.0788264812457842
1218.2657400000194 1.0308058208528168
1220.2847200000194 0.986041415125082
1222.3037000000195 0.9442600500898897
1224.3226800000195 0.9052167844093526
1226.3416600000196 0.8686916525011884
1228.3606400000197 0.8344868047897233
1230.3796200000197 0.8024240228046466
1232.3986000000198 0.7835693150888039
1234.4175800000198 0.7555139548656503
1236.4365600000199 0.7291683652647841
1238.45554000002 0.687611229183315
1240.47452000002 0.6646174472322691
1242.49350000002 0.6430036399250207
1244.51248000002 0.622682057749434
1246.5314600000202 0.6035732941765367
1248.5504400000202 0.5856055538989374
1250.5694200000203 0.5687140165433644
1252.5884000000203 0.5528402859467433
1254.6073800000204 0.5379319167795481
1256.6263600000204 0.5239420118106412
1258.6453400000205 0.5108288844758168
1260.6643200000206 0.49855578267497597
1262.6833000000206 0.4870906709144285
1264.7022800000207 0.47640606906340544
1266.7212600000207 0.466478947138554
1268.7402400000208 0.45729067669764994
1270.7592200000208 0.4488270406448621
1272.778200000021 0.4410783045558303
1274.797180000021 0.434039354052809
1276.816160000021 0.4277099043284278
1278.835140000021 0.42209478965790503
1280.854120000021 0.417204342672457
1282.8731000000212 0.41305487529344737
1284.8920800000212 0.40966927551952304
1286.9110600000213 0.40707773663608166
1288.9300400000213 0.40531863770476734
1290.9490200000214 0.40443959606382857
1292.9680000000214 0.40449871344929295
1294.9869800000215 0.40556603624332277
1297.0059600000216 0.4077252456229602
1299.0249400000216 0.4110755823276564
1301.0439200000217 0.41573398905536363
1303.0629000000217 0.4218374142671747
1305.0818800000218 0.4295451537200902
1307.1008600000218 0.43904099398968854
1309.119840000022 0.45053474125455895
1311.138820000022 0.464262433951131
1313.157800000022 0.480484103126984
1315.176780000022 0.4994773044249539
1317.1957600000221 0.5215237520903871
1319.2147400000222 0.5468852378732793
1321.2337200000222 0.5757637581440475
1323.2527000000223 0.6082398664166591
1325.2716800000223 0.6441837937265592
1327.2906600000224 0.6831378492025414
1329.3096400000225 0.7241789818299632
1331.3286200000225 0.7657898614053756
1333.3476000000226 0.8057942128409393
1335.3665800000226 0.8414359414751984
1337.3855600000227 0.8696759049191104
1339.4045400000227 0.8877151683416142
1341.4235200000228 0.8936299272288492
1343.4425000000228 0.8868872530585873
1345.461480000023 0.8685083663066359
1347.480460000023 0.8407986588318241
1349.499440000023 0.8067753682634661
1351.518420000023 0.7695402025815463
1353.5374000000231 0.7318038173868119
1355.5563800000232 0.6956409362774999
1357.5753600000232 0.6624426597104405
1359.5943400000233 0.6329847625062375
1361.6133200000234 0.6075366593873551
1363.6323000000234 0.5859646913741227
1365.6512800000235 0.5678137103453598
1367.6702600000235 0.5523741447991376
1369.6892400000236 0.5387555405697794
1371.7082200000236 0.5259891226656233
1373.7272000000237 0.5131672202061509
1375.7461800000237 0.4995983457121011
1377.7651600000238 0.36638341105155653
1379.7841400000239 0.3525896893288213
1381.803120000024 0.338010360437368
1383.822100000024 0.3231704338059988
1385.841080000024 0.3086361246104402
1387.860060000024 0.2949063310239804
1389.8790400000241 0.2823572219057091
1391.8980200000242 0.2712327783152497
1393.9170000000242 0.26166324064510005
1395.9359800000243 0.25369450749943434
1397.9549600000244 0.24731754171717718
1399.9739400000244 0.2424926969594611
1401.9929200000245 0.2391677261455522
1404.0119000000245 0.2372901408279391
1406.0308800000246 0.23681523627646933
1408.0498600000246 0.23771110390754688
1410.0688400000247 0.23996171644139358
1412.0878200000247 0.24356889268087265
1414.1068000000248 0.24855370924399056
1416.1257800000249 0.25495774670022725
1418.144760000025 0.2628444328233444
1420.163740000025 0.2723006637040388
1422.182720000025 0.2834388313313311
1424.201700000025 0.2963993526818254
1426.2206800000251 0.3113537706910995
1428.2396600000252 0.32850847264571725
1430.2586400000253 0.34810903651145175
1432.2776200000253 0.37044515756930574
1434.2966000000254 0.3958560080074114
1436.3155800000254 0.4247357133119527
1438.3345600000255 0.45753835017121874
1440.3535400000255 0.4947814203042225
1442.3725200000256 0.5370460465509129
1444.3915000000256 0.5849710560960586
1446.4104800000257 0.6392365240060477
1448.4294600000258 0.700530127625167
1450.4484400000258 0.769486807974378
1452.4674200000259 0.8465891011679696
1454.486400000026 0.9320132486352986
1456.505380000026 1.0254075004790595
1458.524360000026 1.1255988985886858
1460.543340000026 1.230250612142635
1462.5623200000261 1.3355403370750503
1464.5813000000262 1.4359983574242605
1466.6002800000263 1.5247030741933738
1468.6192600000263 1.5940176991248605
1470.6382400000264 1.6368901585641926
1472.6572200000264 1.6484308119608029
1474.6762000000265 1.6271941480224588
1476.6951800000265 1.5755846866561307
1478.7141600000266 1.4991868454045376
1480.7331400000267 1.4053453034158154
1482.7521200000267 1.3016123553071755
1484.7711000000268 1.1945789361010861
1486.7900800000268 1.0892881143933586
1488.8090600000269 0.9891512265924367
1490.828040000027 0.9956748296852301
1492.847020000027 0.9124534580858135
1494.866000000027 0.8375381213504055
1496.884980000027 0.7706501853333819
1498.9039600000272 0.711249607367759
1500.9229400000272 0.6586733974215878
1502.9419200000273 0.6122237440185309
1504.9609000000273 0.5712203137242066
1506.9798800000274 0.5350285733498078
1508.9988600000274 0.5030728540536544
1511.0178400000275 0.4748401697237651
1513.0368200000275 0.4498787480510796
1515.0558000000276 0.42779378432317283
1517.0747800000277 0.4082419540130813
1519.0937600000277 0.3909255874577399
1521.1127400000278 0.37558701017102114
1523.1317200000278 0.36200330634750466
1525.1507000000279 0.34998161602622524
1527.169680000028 0.3393549915923363
1529.188660000028 0.3299787929785574
1531.207640000028 0.3217275778770531
1533.226620000028 0.31449243392488574
1535.2456000000282 0.3081786982605089
1537.2645800000282 0.3027040124548598
1539.2835600000283 0.29799666543998693
1541.3025400000283 0.2939941824334571
1543.3215200000284 0.2906421232835954
1545.3405000000284 0.28789305876874627
1547.3594800000285 0.2857056980012662
1549.3784600000286 0.2840441441563578
1551.3974400000286 0.2828772592728091
1553.4164200000287 0.28217812189541286
1555.4354000000287 0.28192356389987694
1557.4543800000288 0.2820937750170055
1559.4733600000288 0.2826719654088421
1561.492340000029 0.28364407819591775
1563.511320000029 0.28499854513674916
1565.530300000029 0.28672607975750014
1567.549280000029 0.2888195031549151
1569.568260000029 0.2912735984778905
1571.5872400000292 0.2940849907565844
1573.6062200000292 0.29725204931315696
1575.6252000000293 0.3007748104722455
1577.6441800000293 0.3046549187065302
1579.6631600000294 0.30889558471540485
1581.6821400000294 0.30900633949834866
1583.7011200000295 0.3140579276174984
1585.7201000000296 0.31948710526521773
1587.7390800000296 0.32530329019651516
1589.7580600000297 0.33151747638340345
1591.7770400000297 0.33814227799918295
1593.7960200000298 0.3451919872190528
1595.8150000000298 0.3526826462519983
1597.83398000003 0.36063213422238755
1599.85296000003 0.36906026973064654
1601.87194000003 0.3779889301452069
1603.89092000003 0.3874421889172693
1605.9099000000301 0.3974464724708539
1607.9288800000302 0.4080307385086058
1609.9478600000302 0.4192266778950973
1611.9668400000303 0.43106894264092654
1613.9858200000303 0.4435954029208147
1616.0048000000304 0.45583000334766305
1618.0237800000305 0.46986957621460756
1620.0427600000305 0.48472893549172397
1622.0617400000306 0.5004621189564219
1624.0807200000306 0.517128242235147
1626.0997000000307 0.534792023418965
1628.1186800000307 0.5535243752162137
1630.1376600000308 0.5734030741436827
1632.1566400000308 0.5945135178005346
1634.175620000031 0.6169495830821277
1636.194600000031 0.640814600325885
1638.213580000031 0.6662224609005121
1640.232560000031 0.6932988787279478
1642.2515400000311 0.7221828297542261
1644.2705200000312 0.75302819756879
1646.2895000000312 0.7860056583413558
1648.3084800000313 0.8213048441564148
1650.3274600000314 0.8591368308637203
1652.3464400000314 0.8997370049499509
1654.3654200000315 0.943368373934507
1656.3844000000315 0.9903253967095947
1658.4033800000316 1.0409384244400945
1660.4223600000316 1.0955788595226774
1662.4413400000317 1.1546651601346745
1664.4603200000317 1.2186698415743844
1666.4793000000318 1.2881276534032982
1668.4982800000319 1.3636451437903585
1670.517260000032 1.4459118597115013
1672.536240000032 1.5357134737121179
1674.555220000032 1.6339471740778806
1676.574200000032 1.741639703591458
1678.5931800000321 1.8599684786768835
1680.6121600000322 1.9902862583716536
1682.6311400000322 2.1341498483803765
1684.6501200000323 2.2933532975794493
1686.6691000000324 2.4699659363763278
1688.6880800000324 2.6663753588521555
1690.7070600000325 2.8853349680502416
1692.7260400000325 3.130014834642296
1694.7450200000326 3.4040531273434076
1696.7640000000326 3.711602897982033
1698.7829800000327 4.057365008557318
1700.8019600000328 4.446591706050982
1702.8209400000328 4.8850357593858575
1704.8399200000329 5.378805959415353
1706.858900000033 5.934070077528637
1708.877880000033 6.556521074104149
1710.896860000033 7.250494573844709
1712.915840000033 8.006426786637984
1714.9348200000331 8.84378969363213
1716.9538000000332 9.740862832389453
1718.9727800000333 10.676973463779596
1720.9917600000333 11.61827894693321
1723.0107400000334 12.516331799241247
1725.0297200000334 13.309813080141803
1727.0487000000335 13.93106228501859
1729.0676800000335 14.31759914939491
1731.0866600000336 14.426107799536448
1733.1056400000336 14.243797117834006
1735.1246200000337 13.791998587648274
1737.1436000000338 13.120226805765185
1739.1625800000338 12.293596851563777
1741.1815600000339 11.379062721494487
1743.200540000034 10.435056372675847
1745.219520000034 9.506289392120987
1747.238500000034 8.623009754499586
1749.257480000034 7.802951124146703
1751.2764600000341 7.054321939593059
1753.2954400000342 6.378768412865845
1755.3144200000343 5.773816804587405
1757.3334000000343 5.23467523979651
1759.3523800000344 4.755460962065633
1761.3713600000344 4.329981440857552
1763.3903400000345 3.952197929514976
1765.4093200000345 3.6164764977187254
1767.4283000000346 3.3177038200664293
1769.4472800000347 3.051321010991174
1771.4662600000347 2.8133105910400995
1773.4852400000348 2.600158831944156
1775.5042200000348 2.4088070953297938
1777.5232000000349 2.236600171309773
1779.542180000035 2.081236080017235
1781.561160000035 1.9407196188142373
1783.580140000035 1.813320634179282
1785.599120000035 1.6975372457010593
1787.6181000000352 1.5920638390484099
1789.6370800000352 1.4957634404334959
1791.6560600000353 1.4076440021919603
1793.6750400000353 1.326838115181881
1795.6940200000354 1.2525856867549694
1797.7130000000354 1.18421916394654
1799.7319800000355 1.1211509291204615
1801.7509600000355 1.0628625433473378
1803.7699400000356 1.0088955580068315
1805.7889200000357 0.9588436559638435
1807.8079000000357 0.9123459196625008
1809.8268800000358 0.869081054661203
1811.8458600000358 0.8287624238338871
1813.8648400000359 0.791133770152109
1815.883820000036 0.7559655251400216
1817.902800000036 0.7230516162461051
1819.921780000036 0.6922066999484773
1821.940760000036 0.6632637588020862
1823.9597400000362 0.6360720101916015
1825.9787200000362 0.6104950825695886
1827.9977000000363 0.5864094216868195
1830.0166800000363 0.5637028949720791
1832.0356600000364 0.5422735669699889
1834.0546400000364 0.5220286227454483
1836.0736200000365 0.5028834195358837
1838.0926000000366 0.4847606497804403
1840.1115800000366 0.46758960106417435
1842.1305600000367 0.4513055005563869
1844.1495400000367 0.43584893325471014
1846.1685200000368 0.4211653248197673
1848.1875000000368 0.4072044810402489
1850.206480000037 0.39392017703938637
1852.225460000037 0.3812697902496952
1854.244440000037 0.3692139719674392
1856.263420000037 0.35771635297162707
1858.2824000000371 0.3467432792712847
1860.3013800000372 0.33626357454342815
1862.3203600000372 0.32624832625446226
1864.3393400000373 0.3166706928297059
1866.3583200000373 0.30750572955785277
1868.3773000000374 0.2987302311965872
1870.3962800000375 0.29032258948836376
1872.4152600000375 0.28226266400667926
1874.4342400000376 0.27453166493739156
1876.4532200000376 0.2671120465605224
1878.4722000000377 0.25998741033868117
1880.4911800000377 0.25314241664151005
1882.5101600000378 0.24656270424368595
1884.5291400000378 0.2402348168290362
1886.548120000038 0.23414613581693963
1888.567100000038 0.2282848189008681
1890.586080000038 0.22263974375395362
1892.605060000038 0.2172004564139365
1894.6240400000381 0.21195712391070737
1896.6430200000382 0.2069004907447269
1898.6620000000382 0.20202183886459948
1900.6809800000383 0.1973129508276087
1902.6999600000383 0.19276607585863761
1904.7189400000384 0.18837389855105077
1906.7379200000385 0.1841295099782313
1908.7569000000385 0.1800263810068875
1910.7758800000386 0.17605833762329132
1912.7948600000386 0.17221953810155277
1914.8138400000387 0.1685044518591099
1916.8328200000387 0.16490783985903737
1918.8518000000388 0.1614247364317257
1920.8707800000388 0.1580504324001277
1922.889760000039 0.15478045940324625
1924.908740000039 0.15161057532197614
1926.927720000039 0.14853675071992786
1928.946700000039 0.14555515621954282
1930.9656800000391 0.14266215074075603
1932.9846600000392 0.13985427053574123
1935.0036400000392 0.13712821895895952
1937.0226200000393 0.1344808569168865
1939.0416000000394 0.13190919394646491
1941.0605800000394 0.12941037987557308
1943.0795600000395 0.12698169702265558
1945.0985400000395 0.1246205528961667
1947.1175200000396 0.1223244733576707
1949.1365000000396 0.12009109621534794
1951.1554800000397 0.11791816521730811
1953.1744600000397 0.11580352441652945
1955.1934400000398 0.11374511288145177
1957.2124200000399 0.11174095972826971
1959.23140000004 0.10978917945281885
1961.25038000004 0.1078879675416366
1963.26936000004 0.10603559634332944
1965.28834000004 0.10423041118279452
1967.3073200000401 0.10247082670214826
1969.3263000000402 0.10075532341340718
1971.3452800000402 0
1973.3642600000403 0
1975.3832400000404 0
1977.4022200000404 0
1979.4212000000405 0
1981.4401800000405 0
1983.4591600000406 0
1985.4781400000406 0
1987.4971200000407 0
1989.5161000000408 0
1991.5350800000408 0
1993.5540600000409 0
1995.573040000041 0
1997.592020000041 0
1999.611000000041 0
2001.629980000041 0
2003.6489600000411 0
2005.6679400000412 0
2007.6869200000413 0
2009.7059000000413 0
2011.7248800000414 0
2013.7438600000414 0
2015.7628400000415 0
2017.7818200000415 0
2019.8008000000416 0
2021.8197800000416 0
2023.8387600000417 0
2025.8577400000418 0
2027.8767200000418 0
2029.8957000000419 0
2031.914680000042 0
2033.933660000042 0
2035.952640000042 0
2037.971620000042 0
2039.9906000000421 0
2042.0095800000422 0
2044.0285600000423 0
2046.0475400000423 0
2048.066520000042 0
2050.085500000042 0
2052.104480000042 0
2054.1234600000416 0
2056.1424400000415 0
2058.1614200000413 0
2060.180400000041 0
2062.199380000041 0
2064.218360000041 0
2066.2373400000406 0
2068.2563200000404 0
2070.2753000000403 0
2072.29428000004 0
2074.31326000004 0
2076.3322400000397 0
2078.3512200000396 0
2080.3702000000394 0
2082.3891800000392 0
2084.408160000039 0
2086.427140000039 0
2088.4461200000387 0
2090.4651000000385 0
2092.4840800000384 0
2094.503060000038 0
2096.522040000038 0
2098.541020000038 0
2100.5600000000377 0
2102.5789800000375 0
2104.5979600000373 0
2106.616940000037 0
2108.635920000037 0
2110.654900000037 0
2112.6738800000367 0
2114.6928600000365 0
2116.7118400000363 0
2118.730820000036 0
2120.749800000036 0
2122.768780000036 0
2124.7877600000356 0
2126.8067400000355 0
2128.8257200000353 0
2130.844700000035 0
2132.863680000035 0
2134.882660000035 0
2136.9016400000346 0
2138.9206200000344 0
2140.9396000000343 0
2142.958580000034 0
2144.977560000034 0
2146.9965400000337 0
2149.0155200000336 0
2151.0345000000334 0
2153.0534800000332 0
2155.072460000033 0
2157.091440000033 0
2159.1104200000327 0
2161.1294000000325 0
2163.1483800000324 0
2165.167360000032 0
2167.186340000032 0
2169.205320000032 0
2171.2243000000317 0
2173.2432800000315 0
2175.2622600000313 0
2177.281240000031 0
2179.300220000031 0
2181.319200000031 0
2183.3381800000307 0
2185.3571600000305 0
2187.3761400000303 0
2189.39512000003 0
2191.41410000003 0
2193.43308000003 0
2195.4520600000296 0
2197.4710400000295 0
2199.4900200000293 0
2201.509000000029 0
2203.527980000029 0
2205.546960000029 0
2207.5659400000286 0
2209.5849200000284 0
2211.6039000000283 0
2213.622880000028 0
2215.641860000028 0
2217.6608400000277 0
2219.6798200000276 0
2221.6988000000274 0
2223.7177800000272 0
2225.736760000027 0
2227.755740000027 0
2229.7747200000267 0
2231.7937000000265 0
2233.8126800000264 0
2235.831660000026 0
2237.850640000026 0
2239.869620000026 0
2241.8886000000257 0
2243.9075800000255 0
2245.9265600000253 0
2247.945540000025 0
2249.964520000025 0
2251.983500000025 0
2254.0024800000247 0
2256.0214600000245 0
2258.0404400000243 0
2260.059420000024 0
2262.078400000024 0
2264.097380000024 0
2266.1163600000236 0
2268.1353400000235 0
2270.1543200000233 0
2272.173300000023 0
2274.192280000023 0
2276.211260000023 0
2278.2302400000226 0
2280.2492200000224 0
2282.2682000000223 0
2284.287180000022 0
2286.306160000022 0
2288.3251400000217 0
2290.3441200000216 0
2292.3631000000214 0
2294.3820800000212 0
2296.401060000021 0
2298.420040000021 0
2300.4390200000207 0
2302.4580000000205 0
2304.4769800000204 0
2306.49596000002 0
2308.51494000002 0
2310.53392000002 0
2312.5529000000197 0
2314.5718800000195 0
2316.5908600000193 0
2318.609840000019 0
2320.628820000019 0
2322.647800000019 0
2324.6667800000187 0
2326.6857600000185 0
2328.7047400000183 0
2330.723720000018 0
2332.742700000018 0
2334.761680000018 0
2336.7806600000176 0
2338.7996400000175 0
2340.8186200000173 0
2342.837600000017 0
2344.856580000017 0
2346.875560000017 0
2348.8945400000166 0
2350.9135200000164 0
2352.9325000000163 0
2354.951480000016 0
2356.970460000016 0
2358.9894400000157 0
2361.0084200000156 0
2363.0274000000154 0
2365.0463800000152 0
2367.065360000015 0
2369.084340000015 0
2371.1033200000147 0
2373.1223000000145 0
2375.1412800000144 0
2377.160260000014 0
2379.179240000014 0
2381.198220000014 0
2383.2172000000137 0
2385.2361800000135 0
2387.2551600000133 0
2389.274140000013 0
2391.293120000013 0
2393.312100000013 0
2395.3310800000127 0
2397.3500600000125 0
2399.3690400000123 0
2401.388020000012 0
2403.407000000012 0
2405.425980000012 0
2407.4449600000116 0
2409.4639400000115 0
2411.4829200000113 0
2413.501900000011 0
2415.520880000011 0
2417.539860000011 0
2419.5588400000106 0
2421.5778200000104 0
2423.5968000000103 0
2425.61578000001 0
2427.63476000001 0
2429.6537400000097 0
2431.6727200000096 0
2433.6917000000094 0
2435.7106800000092 0
2437.729660000009 0
2439.748640000009 0
2441.7676200000087 0
2443.7866000000085 0
2445.8055800000084 0
2447.824560000008 0
2449.843540000008 0
2451.862520000008 0
2453.8815000000077 0
2455.9004800000075 0
2457.9194600000073 0
2459.938440000007 0
2461.957420000007 0
2463.976400000007 0
2465.9953800000067 0
2468.0143600000065 0
2470.0333400000063 0
2472.052320000006 0
2474.071300000006 0
2476.090280000006 0
2478.1092600000056 0
2480.1282400000055 0
2482.1472200000053 0
2484.166200000005 0
2486.185180000005 0
2488.204160000005 0
2490.2231400000046 0
2492.2421200000044 0
2494.2611000000043 0
2496.280080000004 0
2498.299060000004 0
2500.3180400000037 0
2502.3370200000036 0
2504.3560000000034 0
2506.3749800000032 0
2508.393960000003 0
2510.412940000003 0
2512.4319200000027 0
2514.4509000000025 0
2516.4698800000024 0
2518.488860000002 0
2520.507840000002 0
2522.526820000002 0
2524.5458000000017 0
2526.5647800000015 0
2528.5837600000013 0
2530.602740000001 0
2532.621720000001 0
2534.640700000001 0
2536.6596800000007 0
2538.6786600000005 0
2540.6976400000003 0
2542.71662 0
2544.7356 0
2546.75458 0
2548.7735599999996 0
2550.7925399999995 0
2552.8115199999993 0
2554.830499999999 0
2556.849479999999 0
2558.868459999999 0
2560.8874399999986 0
2562.9064199999984 0
2564.9253999999983 0
2566.944379999998 0
2568.963359999998 0
2570.9823399999977 0
2573.0013199999976 0
2575.0202999999974 0
2577.0392799999972 0
2579.058259999997 0
2581.077239999997 0
2583.0962199999967 0
2585.1151999999965 0
2587.1341799999964 0
2589.153159999996 0
2591.172139999996 0
2593.191119999996 0
2595.2100999999957 0
2597.2290799999955 0
2599.2480599999953 0
2601.267039999995 0
2603.286019999995 0
2605.304999999995 0
2607.3239799999947 0
2609.3429599999945 0
2611.3619399999943 0
2613.380919999994 0
2615.399899999994 0
2617.418879999994 0
2619.4378599999936 0
2621.4568399999935 0
2623.4758199999933 0
2625.494799999993 0
2627.513779999993 0
2629.532759999993 0
2631.5517399999926 0
2633.5707199999924 0
2635.5896999999923 0
2637.608679999992 0
2639.627659999992 0
2641.6466399999917 0
2643.6656199999916 0
2645.6845999999914 0
2647.7035799999912 0
2649.722559999991 0
2651.741539999991 0
2653.7605199999907 0
2655.7794999999905 0
2657.7984799999904 0
2659.81745999999 0
2661.83643999999 0
2663.85541999999 0
2665.8743999999897 0
2667.8933799999895 0
2669.9123599999893 0
2671.931339999989 0
2673.950319999989 0
2675.969299999989 0
2677.9882799999887 0
2680.0072599999885 0
2682.0262399999883 0
2684.045219999988 0
2686.064199999988 0
2688.083179999988 0
2690.1021599999876 0
2692.1211399999875 0
2694.1401199999873 0
2696.159099999987 0
2698.178079999987 0
2700.197059999987 0
2702.2160399999866 0
2704.2350199999864 0
2706.2539999999863 0
2708.272979999986 0
2710.291959999986 0
2712.3109399999857 0
2714.3299199999856 0
2716.3488999999854 0
2718.3678799999852 0
2720.386859999985 0
2722.405839999985 0
2724.4248199999847 0
2726.4437999999845 0
2728.4627799999844 0
2730.481759999984 0
2732.500739999984 0
2734.519719999984 0
2736.5386999999837 0
2738.5576799999835 0
2740.5766599999833 0
2742.595639999983 0
2744.614619999983 0
2746.633599999983 0
2748.6525799999827 0
2750.6715599999825 0
2752.6905399999823 0
2754.709519999982 0
2756.728499999982 0
2758.747479999982 0
2760.7664599999816 0
2762.7854399999815 0
2764.8044199999813 0
2766.823399999981 0
2768.842379999981 0
2770.861359999981 0
2772.8803399999806 0
2774.8993199999804 0
2776.9182999999803 0
2778.93727999998 0
2780.95625999998 0
2782.9752399999797 0
2784.9942199999796 0
2787.0131999999794 0
2789.0321799999792 0
2791.051159999979 0
2793.070139999979 0
2795.0891199999787 0
2797.1080999999785 0
2799.1270799999784 0
2801.146059999978 0
2803.165039999978 0
2805.184019999978 0
2807.2029999999777 0
2809.2219799999775 0
2811.2409599999773 0
2813.259939999977 0
2815.278919999977 0
2817.297899999977 0
2819.3168799999767 0
2821.3358599999765 0
2823.3548399999763 0
2825.373819999976 0
2827.392799999976 0
2829.411779999976 0
2831.4307599999756 0
2833.4497399999755 0
2835.4687199999753 0
2837.487699999975 0
2839.506679999975 0
2841.525659999975 0
2843.5446399999746 0
2845.5636199999744 0
2847.5825999999743 0
2849.601579999974 0
2851.620559999974 0
2853.6395399999737 0
2855.6585199999736 0
2857.6774999999734 0
2859.6964799999732 0
2861.715459999973 0
2863.734439999973 0
2865.7534199999727 0
2867.7723999999725 0
2869.7913799999724 0
2871.810359999972 0
2873.829339999972 0
2875.848319999972 0
2877.8672999999717 0
2879.8862799999715 0
2881.9052599999713 0
2883.924239999971 0
2885.943219999971 0
2887.962199999971 0
2889.9811799999707 0
2892.0001599999705 0
2894.0191399999703 0
2896.03811999997 0
2898.05709999997 0
2900.07607999997 0
2902.0950599999696 0
2904.1140399999695 0
2906.1330199999693 0
2908.151999999969 0
2910.170979999969 0
2912.189959999969 0
2914.2089399999686 0
2916.2279199999684 0
2918.2468999999683 0
2920.265879999968 0
2922.284859999968 0
2924.3038399999677 0
2926.3228199999676 0.004766896551724138
2928.3417999999674 0.004847552650080313
2930.3607799999672 0.0049302682741010255
2932.379759999967 0.00501511396939637
2934.398739999967 0.005102163320428996
2936.4177199999667 0.0051914931085463335
2938.4366999999665 0.005283183479658358
2940.4556799999664 0.005377318122237711
2942.474659999966 0.005473984456372778
2944.493639999966 0.005573273834662754
2946.512619999966 0.005675281755807577
2948.5315999999657 0.005780108091815021
2950.5505799999655 0.005887857329823138
2952.5695599999653 0.0059986388296190294
2954.588539999965 0.00611256709802538
2956.607519999965 0.006229762081425196
2958.626499999965 0.006350349477803399
2960.6454799999647 0.006474461069802592
2962.6644599999645 0.006602235080420303
2964.6834399999643 0.006733816553117594
2966.702419999964 0.00686935775826562
2968.721399999964 0.007009018628028647
2970.740379999964 0.007152967221971457
2972.7593599999636 0.007301380225887273
2974.7783399999635 0.012800374521054689
2976.7973199999633 0.01304873700716127
2978.816299999963 0.01330446095967298
2980.835279999963 0.013567842437668232
2982.854259999963 0.013839192631715857
2984.8732399999626 0.014118838806339556
2986.8922199999624 0.014407125311949097
2988.9111999999623 0.014704414672166525
2990.930179999962 0.015011088753051708
2992.949159999962 0.015327550021370113
2994.9681399999617 0.015654222899755002
2996.9871199999616 0.015991555227404444
2999.0060999999614 0.016340019835830572
3001.0250799999612 0.01670011625015567
3003.044059999961 0.017072372527539192
3005.063039999961 0.01745734724553665
3007.0820199999607 0.017855631654551306
3009.1009999999605 0.018267852010061987
3011.1199799999604 0.01869467210201644
3013.13895999996 0.019136796000693727
3015.15793999996 0.019594971040490374
3017.17691999996 0.020069991065504028
3019.1958999999597 0.020562699963514838
3021.2148799999595 0.02107399551803916
3023.2338599999593 0.02954028188746609
3025.252839999959 0.030225949225434208
3027.271819999959 0.030936692451116084
3029.290799999959 0.031673788496613606
3031.3097799999587 0.032438598589135455
3033.3287599999585 0.033232575128188876
3035.3477399999583 0.03405726923270201
3037.366719999958 0.03491433903399704
3039.385699999958 0.03580555880034243
3041.404679999958 0.03673282899004059
3043.4236599999576 0.037698187342883556
3045.4426399999575 0.03870382113460146
3047.4616199999573 0.03975208073595037
3049.480599999957 0.04084549463770963
3051.499579999957 0.0419867861255213
3053.518559999957 0.04317889181472507
3055.5375399999566 0.04442498228573506
3057.5565199999564 0.04572848509579985
3059.5754999999563 0.047093110484052375
3061.594479999956 0.04852288013462423
3063.613459999956 0.050022159418504346
3065.6324399999557 0.05159569360023655
3067.6514199999556 0.05324864857223859
3069.6703999999554 0.05498665676959781
3071.6893799999552 0.05681586902418875
3073.708359999955 0.0587430132419049
3075.727339999955 0.06077546093435276
3077.7463199999547 0.06292130281090438
3079.7652999999546 0.06518943484381529
3081.7842799999544 0.06758965646450601
3083.803259999954 0.07013278284065749
3085.822239999954 0.07283077353053673
3087.841219999954 0.07569688022374245
3089.8601999999537 0.07874581676912457
3091.8791799999535 0.08199395527601874
3093.8981599999534 0.08545955277163818
3095.917139999953 0.08916301372549329
3097.936119999953 0.09312719473344887
3099.955099999953 0.09737775881359097
3101.9740799999527 0.10194358812787951
3103.9930599999525 0.10685726552953342
3106.0120399999523 0.1121556371605946
3108.031019999952 0.11788047038514711
3110.049999999952 0.12407922360800044
3112.068979999952 0.1308059469071776
3114.0879599999516 0.13812233471600593
3116.1069399999515 0.14609895368032422
3118.1259199999513 0.1548166696756379
3120.144899999951 0.16436829675297374
3122.163879999951 0.17486048575118557
3124.182859999951 0.18641585862477206
3126.2018399999506 0.19917537161594998
3128.2208199999504 0.21330084899737756
3130.2397999999503 0.2289775579211106
3132.25877999995 0.24641657665095146
3134.27775999995 0.2658565174381494
3136.2967399999498 0.2875638648469367
3138.3157199999496 0.31183073141485906
3140.3346999999494 0.33896815708375694
3142.3536799999492 0.3692921356381389
3144.372659999949 0.40309834011326723
3146.391639999949 0.44062018971574957
3148.4106199999487 0.48196394478913374
3150.4295999999486 0.5270150720832696
3152.4485799999484 0.5753143160373129
3154.467559999948 0.625912862515295
3156.486539999948 0.6772365509082018
3158.505519999948 0.7270180025477118
3160.5244999999477 0.7723806756727282
3162.5434799999475 0.8101528693737077
3164.5624599999474 0.8374210632905105
3166.581439999947 0.8522014410989445
3168.600419999947 0.8539859718051995
3170.619399999947 0.843916897281387
3172.6383799999467 0.8245046105786406
3174.6573599999465 0.7990275529664661
3176.6763399999463 0.7708758283825993
3178.695319999946 0.7430577742506835
3180.714299999946 0.7179536211152331
3182.733279999946 0.6972818551806859
3184.7522599999456 0.6821930207906778
3186.7712399999455 0.6734104445393023
3188.7902199999453 0.6713647206470952
3190.809199999945 0.6762951044997783
3192.828179999945 0.6883075629559233
3194.847159999945 0.7073866322362501
3196.8661399999446 0.7333601573942354
3198.8851199999444 0.7658166198341481
3200.9040999999443 0.8039783334553872
3202.923079999944 0.8465447425861394
3204.942059999944 0.8915419743510848
3206.9610399999438 0.9362463507828556
3208.9800199999436 0.9772771481716771
3210.9989999999434 1.0109467632392994
3213.0179799999432 1.033879204823323
3215.036959999943 1.0437612648993548
3217.055939999943 1.0399532666618492
3219.0749199999427 1.023683390230705
3221.0938999999426 0.99773024474595
3223.1128799999424 0.965749135577924
3225.131859999942 0.9315354683974557
3227.150839999942 0.8984710810416126
3229.169819999942 0.8692477267668217
3231.1887999999417 0.8458289402749455
3233.2077799999415 0.8295543395503098
3235.2267599999414 0.8212955519113048
3237.245739999941 0.8216033598441128
3239.264719999941 0.8308147816831204
3241.283699999941 0.8491069275921964
3243.3026799999407 0.8764922310558796
3245.3216599999405 0.912751422630169
3247.3406399999403 0.9573015463450063
3249.35961999994 1.0090020316257127
3251.37859999994 1.0659185703379683
3253.39757999994 1.1250974985319466
3255.4165599999396 1.1824505306312998
3257.4355399999395 1.2328908545561303
3259.4545199999393 1.2708511606934643
3261.473499999939 1.2911996154229837
3263.492479999939 1.2903522904994718
3265.511459999939 1.2671765625577858
3267.5304399999386 1.2232757321736707
3269.5494199999384 1.1625133365874412
3271.5683999999383 1.090007949974003
3273.587379999938 1.0110342072154026
3275.606359999938 0.9301952328906226
3277.6253399999378 0.8510069654763719
3279.6443199999376 0.7758379270738258
3281.6632999999374 0.7060638569404537
3283.6822799999372 0.6423053846200645
3285.701259999937 0.5846637244888879
3287.720239999937 0.5329149301387935
3289.7392199999367 0.48665314694159884
3291.7581999999366 0.4453881068646904
3293.7771799999364 0.40860709692189556
3295.796159999936 0.3758116486519419
3297.815139999936 0.34653731732149196
3299.834119999936 0.3203627082249798
3301.8530999999357 0.29691199507722765
3303.8720799999355 0.27585372441623446
3305.8910599999354 0.25689767679012043
3307.910039999935 0.23979086759803653
3309.929019999935 0.224313323620768
3311.947999999935 0.2102739890863099
3313.9669799999347 0.19750694154965237
3315.9859599999345 0.18586799415808453
3318.0049399999343 0.175231701156913
3320.023919999934 0.1654887509352739
3322.042899999934 0.15654371477206214
3324.061879999934 0.14831311296441438
3326.0808599999336 0.14072375902370665
3328.0998399999335 0.13371134455817213
3330.1188199999333 0.12721923080395015
3332.137799999933 0.12119741663112861
3334.156779999933 0.11560165674203857
3336.175759999933 0.11039270743557114
3338.1947399999326 0.10553568061334342
3340.2137199999324 0.10099948961151878
3342.2326999999323 0.09675637296086786
3344.251679999932 0.09278148433493519
3346.270659999932 0.08905253877968253
3348.2896399999318 0.08554950686818223
3350.3086199999316 0.08225434973007448
3352.3275999999314 0.07915078900361634
3354.3465799999312 0.0762241066802575
3356.365559999931 0.07346097058561786
3358.384539999931 0.0708492818903794
3360.4035199999307 0.06837804159018428
3362.4224999999306 0.06603723335221268
3364.4414799999304 0.06381772051199622
3366.46045999993 0.06171115532916473
3368.47943999993 0.05970989888518259
3370.49841999993 0.05780695023801462
3372.5173999999297 0.055995883644971836
3374.5363799999295 0.054270792831476095
3376.5553599999294 0.052626241424934765
3378.574339999929 0.051057218793317594
3380.593319999929 0.049559100630702596
3382.612299999929 0.04812761371978053
3384.6312799999287 0.0467588043763944
3386.6502599999285 0.045449010145586055
3388.6692399999283 0.044194834373947466
3390.688219999928 0.04299312333069923
3392.707199999928 0.04184094559098789
3394.726179999928 0.04073557343037487
3396.7451599999276 0.03967446601019918
3398.7641399999275 0.038655254160120445
3400.7831199999273 0.03767572658727478
3402.802099999927 0.03673381736159552
3404.821079999927 0.03582759454438582
3406.840059999927 0.030208693327855328
3408.8590399999266 0.02944669715405468
3410.8780199999264 0.028713385816451727
3412.8969999999263 0.028007330286110528
3414.915979999926 0.027327189675682304
3416.934959999926 0.026671704789185378
3418.9539399999258 0.026039692215475585
3420.9729199999256 0.025430038913761478
3422.9918999999254 0.024841697244955288
3425.0108799999252 0.02427368040746152
3427.029859999925 0.023725058240268458
3429.048839999925 0.023194953359989817
3431.0678199999247 0.022682537601865255
3433.0867999999246 0.02218702873771767
3435.1057799999244 0.02170768744652896
3437.124759999924 0.02124381451567135
3439.143739999924 0.020794748252952515
3441.162719999924 0.02035986209152974
3443.1816999999237 0.01993856237144594
3445.2006799999235 0.019530286283062026
3447.2196599999234 0.019134499959025476
3449.238639999923 0.018750696702641095
3451.257619999923 0.018378395341612872
3453.276599999923 0.01801713869711837
3455.2955799999227 0.012343371864047077
3457.3145599999225 0.012090581181477076
3459.3335399999223 0.011845451012887153
3461.352519999922 0.01160767597456547
3463.371499999922 0.011376965699075444
3465.390479999922 0.011153043960802893
3467.4094599999216 0.01093564786014184
3469.4284399999215 0.010724527061883064
3471.4474199999213 0.010519443083742015
3473.466399999921 0.010320168631301101
3475.485379999921 0.010126486975948878
3477.504359999921 0.00993819137267808
3479.5233399999206 0.022757843135548874
3481.5423199999204 0.022799743889167605
3483.5612999999203 0.02285208288754092
3485.58027999992 0.022914880627709473
3487.59925999992 0.022988173473108584
3489.6182399999198 0.023072013688473166
3491.6372199999196 0.023166469524944732
3493.6561999999194 0.023271625355598513
3495.6751799999192 0.023387581861878656
3497.694159999919 0.023514456271702185
3499.713139999919 0.023652382650270275
3501.7321199999187 0.023801512244910124
3503.7510999999186 0.016060425650533196
3505.7700799999184 0.016362606552898895
3507.789059999918 0.016673370958647352
3509.808039999918 0.016993046047915312
3511.827019999918 0.017321974689598563
3513.8459999999177 0.017660516349834787
3515.8649799999175 0.018009048062246003
3517.8839599999174 0.01836796546476839
3519.902939999917 0.01873768390832465
3521.921919999917 0.019118639643063096
3523.940899999917 0.0195112910884042
3525.9598799999167 0.019916120193703507
3527.9788599999165 0.020333633896965735
3529.9978399999163 0.02076436568973579
3532.016819999916 0.021208877297053976
3534.035799999916 0.021667760482205065
3536.054779999916 0.022141638986922008
3538.0737599999156 0.022631170618735503
3540.0927399999155 0.02313704949830329
3542.1117199999153 0.02366000848081917
3544.130699999915 0.02420082176700889
3546.149679999915 0.024760307720783012
3548.168659999915 0.025339331912356263
3550.1876399999146 0.02593881040758069
3552.2066199999144 0.026559713326399958
3554.2255999999143 0.027203068695744202
3556.244579999914 0.027869966624880373
3558.263559999914 0.028561563834248797
3560.2825399999138 0.0292790885721959
3562.3015199999136 0.030023845957802282
3564.3204999999134 0.030797223792261547
3566.3394799999132 0.03160069888605047
3568.358459999913 0.032435843954519115
3570.377439999913 0.03330433514060258
3572.3964199999127 0.03420796023021336
3574.4153999999126 0.03514862763362243
3576.4343799999124 0.036128376214910676
3578.453359999912 0.03714938606151604
3580.472339999912 0.03821399029719013
3582.491319999912 0.039324688054510996
3584.5102999999117 0.04048415873770887
3586.5292799999115 0.041695277723221486
3588.5482599999114 0.042961133664421
3590.567239999911 0.044285047588715744
3592.586219999911 0.04567059400016143
3594.605199999911 0.04712162422932453
3596.6241799999107 0.04864229230502392
3598.6431599999105 0.05023708366043625
3600.6621399999103 0.05191084702971517
3602.68111999991 0.053668829941720314
3604.70009999991 0.05551671827583565
3606.71907999991 0.05746068041254785
3608.7380599999096 0.05950741659007785
3610.7570399999095 0.061664214169845355
3612.7760199999093 0.06393900962019695
3614.794999999909 0.06634045815238503
3616.813979999909 0.06887801208852484
3618.832959999909 0.07156200921209836
3620.8519399999086 0.07440377255220636
3622.8709199999084 0.07741572328882806
3624.8898999999083 0.08061150874457561
3626.908879999908 0.08400614775695187
3628.927859999908 0.08761619611368142
3630.9468399999078 0.09145993519401033
3632.9658199999076 0.09555758750505638
3634.9847999999074 0.09993156345125206
3637.0037799999072 0.10460674444695507
3639.022759999907 0.1096108084016714
3641.041739999907 0.1149746047029626
3643.0607199999067 0.12073258712827328
3645.0796999999066 0.12692331467391463
3647.0986799999064 0.13359003214416118
3649.117659999906 0.1407813445494823
3651.136639999906 0.14855200198025095
3653.155619999906 0.15696381471527096
3655.1745999999057 0.1660867219581502
3657.1935799999055 0.17600004182683174
3659.2125599999054 0.18679393508941278
3661.231539999905 0.19857112063460164
3663.250519999905 0.21144888669397588
3665.269499999905 0.22556144814876133
3667.2884799999047 0.24106270634624483
3669.3074599999045 0.2581294727691295
3671.3264399999043 0.27696521996748896
3673.345419999904 0.2978044195192226
3675.364399999904 0.3209175126767702
3677.383379999904 0.3466165270198279
3679.4023599999036 0.3752612893759846
3681.4213399999035 0.40726607170034546
3683.4403199999033 0.4431063116610848
3685.459299999903 0.4833247262045323
3687.478279999903 0.5285356142647099
3689.497259999903 0.579425323959086
3691.5162399999026 0.6367456062904991
3693.5352199999024 0.7012947331383549
3695.5541999999023 0.7738786823961727
3697.573179999902 0.8552413865484748
3699.592159999902 0.9459494116766808
3701.6111399999018 1.0462138225894613
3703.6301199999016 1.155633501450843
3705.6490999999014 1.2728556209621755
3707.6680799999012 1.3951788380642893
3709.687059999901 1.5181808755524049
3711.706039999901 1.6355310159509444
3713.7250199999007 1.7392166058113825
3715.7439999999006 1.8203963283941322
3717.7629799999004 1.8709057780190093
3719.7819599999 1.8850847935371728
3721.8009399999 1.8612619371891552
3723.8199199999 1.8022246312973709
3725.8388999998997 1.7144430350174082
3727.8578799998995 1.6064258499112425
3729.8768599998994 1.4869220720580072
3731.895839999899 1.3635671077191602
3733.914819999899 1.2422034983441999
3735.933799999899 1.1267837998045913
3737.9527799998987 1.0196253011041694
3739.9717599998985 0.921800613294243
3741.9907399998983 0.833524849786043
3744.009719999898 0.7544747627189051
3746.028699999898 0.6840241893920224
3748.047679999898 0.6214044197111892
3750.0666599998976 0.5658062648562866
3752.0856399998975 0.5164406312163503
3754.1046199998973 0.47257132324091616
3756.123599999897 0.433530173736561
3758.142579999897 0.39872146513503315
3760.161559999897 0.36762022635402986
3762.1805399998966 0.33976731236145563
3764.1995199998964 0.31476304551958356
3766.2184999998963 0.2922604648981582
3768.237479999896 0.2719587667528601
3770.256459999896 0.25359723445761945
3772.2754399998958 0.23694978581901366
3774.2944199998956 0.22182016749106628
3776.3133999998954 0.20803777256052702
3778.3323799998952 0.19545403066954933
3780.351359999895 0.1839393092108817
3782.370339999895 0.1733802623114764
3784.3893199998947 0.1636775673326233
3786.4082999998946 0.15474399395828012
3788.4272799998944 0.14650275716190478
3790.446259999894 0.1388861116198268
3792.465239999894 0.1318341510472169
3794.484219999894 0.12529378127180246
3796.5031999998937 0.11921784056390908
3798.5221799998935 0.11356434481565902
3800.5411599998934 0.10829583865134641
3802.560139999893 0.10337883651587422
3804.579119999893 0.09878334029409525
3806.598099999893 0.09448242212447998
3808.6170799998927 0.09045186284413739
3810.6360599998925 0.08666983799075925
3812.6550399998923 0.0831166445356952
3814.674019999892 0.07977446256979767
3816.692999999892 0.076627147042743
3818.711979999892 0.07366004539489461
3820.7309599998916 0.07085983754161647
3822.7499399998915 0.06821439519264473
3824.7689199998913 0.06571265792982449
3826.787899999891 0.06334452383866716
3828.806879999891 0.06110075280396108
3830.825859999891 0.0589728808463791
3832.8448399998906 0.056953144103413934
3834.8638199998904 0.055034411250476444
3836.8827999998903 0.05321012332198983
3838.90177999989 0.05147424003227975
3840.92075999989 0.04982119181574025
3842.9397399998898 0.04824583690828026
3844.9587199998896 0.04674342288004156
3846.9776999998894 0.04530955210503187
3848.9966799998892 0.04394015071847823
3851.015659999889 0.04263144066893525
3853.034639999889 0.041379914520789055
3855.0536199998887 0.04018231270488794
3857.0725999998886 0.03903560295154224
3859.0915799998884 0.037936961671861676
3861.110559999888 0.036883757081011055
3863.129539999888 0.03587353388104002
3865.148519999888 0.034903999341963254
3867.1674999998877 0.033973010638155124
3869.1864799998875 0.033078563313228115
3871.2054599998874 0.032218780760695565
3873.224439999887 0.031391904620135795
3875.243419999887 0.030596285999500056
3877.262399999887 0.029830377443836046
3879.2813799998867 0.029092725579195726
3881.3003599998865 0.028381964368005965
3883.3193399998863 0.02769680891882648
3885.338319999886 0.027036049799308598
3887.357299999886 0.026398547806394654
3889.376279999886 0.025783229152440638
3891.3952599998856 0.025189081030075763
3893.4142399998855 0.02461514752229189
3895.4332199998853 0.024060525827537396
3897.452199999885 0.023524362772520194
3899.471179999885 0.02300585158804408
3901.490159999885 0.022504228925547116
3903.5091399998846 0.022018772094111436
3905.5281199998844 0.021548796499598545
3907.5470999998843 0.021093653269256305
3909.566079999884 0.02065272704666528
3911.585059999884 0.020225433943261453
3913.6040399998838 0.01981121963390537
3915.6230199998836 0.019409557585080856
3917.6419999998834 0.019019947405309857
3919.6609799998832 0.018641913308277865
3921.679959999883 0.018275002679984855
3923.698939999883 0.017918784741979613
3925.7179199998827 0.01757284930340882
3927.7368999998826 0.017236805595222827
3929.7558799998824 0.016910281180434448
3931.774859999882 0.01659292093483106
3933.793839999882 0.016284386092998027
3935.812819999882 0.015984353354929058
3937.8317999998817 0.015692514048878416
3939.8507799998815 0.015408573346456633
3941.8697599998814 0.015132249526287243
3943.888739999881 0.014863273282830693
3945.907719999881 0.014601387077245396
3947.926699999881 0.014346344527397095
3949.9456799998807 0.01409790983434853
3951.9646599998805 0.013855857242863727
3953.9836399998803 0.013619970533646535
3956.00261999988 0.01339004254520335
3958.02159999988 0.013165874723375864
3960.04057999988 0
3962.0595599998796 0
3964.0785399998795 0
3966.0975199998793 0
3968.116499999879 0
3970.135479999879 0
3972.154459999879 0
3974.1734399998786 0
3976.1924199998784 0
3978.2113999998783 0
3980.230379999878 0
3982.249359999878 0
3984.2683399998778 0
3986.2873199998776 0
3988.3062999998774 0
3990.3252799998772 0
3992.344259999877 0
3994.363239999877 0
3996.3822199998767 0
3998.4011999998766 0
4000.4201799998764 0
4002.439159999876 0
4004.458139999876 0
4006.477119999876 0
4008.4960999998757 0
4010.5150799998755 0
4012.5340599998754 0
4014.553039999875 0
4016.572019999875 0
4018.590999999875 0
4020.6099799998747 0
4022.6289599998745 0
4024.6479399998743 0
4026.666919999874 0
4028.685899999874 0
4030.704879999874 0
4032.7238599998736 0
4034.7428399998735 0
4036.7618199998733 0
4038.780799999873 0
4040.799779999873 0
4042.818759999873 0
4044.8377399998726 0
4046.8567199998724 0
4048.8756999998723 0
4050.894679999872 0
4052.913659999872 0
4054.9326399998718 0
4056.9516199998716 0
4058.9705999998714 0
4060.9895799998712 0
4063.008559999871 0
4065.027539999871 0
4067.0465199998707 0
4069.0654999998706 0
4071.0844799998704 0
4073.10345999987 0
4075.12243999987 0
4077.14141999987 0
4079.1603999998697 0
4081.1793799998695 0
4083.1983599998694 0
4085.217339999869 0
4087.236319999869 0
4089.255299999869 0
4091.2742799998687 0
4093.2932599998685 0
4095.3122399998683 0
4097.331219999868 0
4099.350199999868 0
4101.369179999868 0
4103.388159999868 0
4105.4071399998675 0
4107.426119999867 0
4109.445099999867 0
4111.464079999867 0
4113.483059999867 0
4115.502039999867 0
4117.521019999866 0
4119.539999999866 0
##END=
