##TITLE=No title given
##JCAMP-DX=5.00 $$ WebMO output
##DATA TYPE=IR SPECTRUM
##DATA CLASS=XYDATA
##DATE=Thu Oct 17 19:07:34 GMT-400 2019
##ORIGIN=WebMO
##OWNER=public domain
##SPECTROMETER/DATA SYSTEM=computed
##XUNITS=1/CM
##YUNITS=ARBITRARY UNITS
##XFACTOR=1.0
##YFACTOR=1.0
##FIRSTX=-248.547185
##LASTX=3439.553695999893
##FIRSTY=0
##NPOINTS=2001
##XYDATA=(X++(Y..Y))
-248.547185 0
-246.7031345595 0
-244.859084119 0
-243.01503367849998 0
-241.17098323799996 0
-239.32693279749995 0
-237.48288235699994 0
-235.63883191649992 0
-233.7947814759999 0
-231.9507310354999 0
-230.1066805949999 0
-228.26263015449987 0
-226.41857971399986 0
-224.57452927349985 0
-222.73047883299984 0
-220.88642839249982 0
-219.0423779519998 0
-217.1983275114998 0
-215.35427707099979 0
-213.51022663049977 0
-211.66617618999976 0
-209.82212574949975 0
-207.97807530899973 0
-206.13402486849972 0
-204.2899744279997 0
-202.4459239874997 0
-200.60187354699968 0
-198.75782310649967 0
-196.91377266599966 0
-195.06972222549965 0
-193.22567178499963 0
-191.38162134449962 0
-189.5375709039996 0
-187.6935204634996 0
-185.84947002299958 0
-184.00541958249957 0
-182.16136914199956 0
-180.31731870149954 0
-178.47326826099953 0
-176.62921782049952 0
-174.7851673799995 0
-172.9411169394995 0
-171.09706649899948 0
-169.25301605849947 0
-167.40896561799946 0
-165.56491517749944 0
-163.72086473699943 0
-161.87681429649942 0
-160.0327638559994 0
-158.1887134154994 0
-156.34466297499938 0
-154.50061253449937 0
-152.65656209399936 0
-150.81251165349934 0
-148.96846121299933 0
-147.12441077249932 0
-145.2803603319993 0
-143.4363098914993 0
-141.59225945099928 0
-139.74820901049927 0
-137.90415856999925 0
-136.06010812949924 0
-134.21605768899923 0
-132.37200724849922 0
-130.5279568079992 0
-128.6839063674992 0
-126.83985592699919 0
-124.9958054864992 0
-123.1517550459992 0
-121.3077046054992 0
-119.4636541649992 0
-117.6196037244992 0
-115.7755532839992 0
-113.9315028434992 0
-112.0874524029992 0
-110.2434019624992 0
-108.39935152199921 0
-106.55530108149921 0
-104.71125064099921 0
-102.86720020049921 0
-101.02314975999921 0
-99.17909931949922 0
-97.33504887899922 0
-95.49099843849922 0
-93.64694799799922 0
-91.80289755749922 0
-89.95884711699922 0
-88.11479667649922 0.0002444137931034483
-86.27074623599923 0.00024818684805286004
-84.42669579549923 0.00025204773823211084
-82.58264535499923 0.00025599920454667867
-80.73859491449923 0.0002600440953827385
-78.89454447399923 0.00026418537169150673
-77.05049403349923 0.00026842611235565353
-75.20644359299924 0.0002727695198557602
-73.36239315249924 0.0002772189262560926
-71.51834271199924 0.0002817777995303641
-69.67429227149924 0.00028644975024967123
-67.83024183099924 0.000291238538656425
-65.98619139049924 0.00029614808214987125
-64.14214094999924 0.00030118246321071435
-62.29809050949925 0.0003063459377944333
-60.45404006899925 0.000311642944225141
-58.60998962849925 0.00031707811262428077
-56.76593918799925 0.0003226562749111103
-54.92188874749925 0.0003283824754148143
-53.077838306999254 0.00033426198214122054
-51.233787866499256 0.00034030029874051646
-49.38973742599926 0.00034650317722607286
-47.54568698549926 0.0003528766314985383
-45.70163654499926 0.00035942695173378346
-43.85758610449926 0.0003661607196980903
-42.013535663999264 0.0003730848250592466
-40.169485223499265 0.000380206482767951
-38.32543478299927 0.000387533251590224
-36.48138434249927 0.0003950730538783954
-34.63733390199927 0.00040283419667578034
-32.79328346149927 0.00041082539425840416
-30.949233020999273 0.00041905579222620325
-29.105182580499275 0.0004275349932660719
-27.261132139999276 0.000436273084720053
-25.417081699499278 0.00044528066810398136
-23.57303125899928 0.00045456889073512637
-21.72898081849928 0.00046414947964194223
-19.884930377999282 0.0004740347779450992
-18.040879937499284 0.0004842377839167042
-16.196829496999285 0.0004947721929441978
-14.352779056499285 0.0005056524426470712
-12.508728615999285 0.0005168937614185078
-10.664678175499285 0.0005285122206905993
-8.820627734999285 0.0005405247912512317
-6.976577294499284 0.0005529494039733888
-5.132526853999284 0.0005658050153539567
-3.288476413499284 0.0005791116782994588
-1.4444259729992839 0.0005928906186411413
0.3996244675007161 0.000607164317911921
2.243674908000716 0.0006219566029736515
4.087725348500716 0.000637292743145618
5.931775789000716 0.0006531995555550423
7.775826229500717 0.000669705519508619
9.619876670000716 0.0006868409007717657
11.463927110500716 0.0007046378867407239
13.307977551000716 0.0007231307336031959
15.152027991500717 0.0007423559267076552
16.996078432000715 0.0007623523555015912
18.840128872500713 0.0007831615045570568
20.684179313000712 0.0008048276623803917
22.52822975350071 0.0008273981499049146
24.37228019400071 0.00085092357079397
26.216330634500707 0.0008754580859409824
28.060381075000706 0.0009010597148474914
29.904431515500704 0.0009277906668948794
31.748481956000703 0.0009557177059066081
33.5925323965007 0.000984912551832391
35.4365828370007 0.001015452323882055
37.2806332775007 0.001047420030004464
39.124683718000696 0.0010809051082570386
40.968734158500695 0.0011160040263572134
42.81278459900069 0.0011528209465639851
44.65683503950069 0.001191468464023605
46.50088548000069 0.0012320684278495707
48.34493592050069 0.0012747528555183709
50.18898636100069 0.0013196649526782138
52.033036801500685 0.0013669602522228509
53.877087242000684 0.0014168078885174228
55.72113768250068 0.0014693920250261907
57.56518812300068 0.0015249134563401242
59.40923856350068 0.0015835914088029694
61.25328900400068 0.0016456655676674043
63.097339444500676 0.0017113983630725788
64.94138988500067 0.0017810775522323088
66.78544032550067 0.0018550191411914308
68.62949076600067 0.0019335706965019532
70.47354120650067 0.0020171151053740488
72.31759164700067 0.002106074852484971
74.16164208750067 0.002200916892933317
76.00569252800067 0.002302158214099359
77.84974296850066 0.0024103721947516215
79.69379340900066 0.0025261958880097557
81.53784384950066 0.0026503383761648236
83.38189429000066 0.0027835903703415633
85.22594473050066 0.0029268352570601427
87.06999517100066 0.0030810618274104084
88.91404561150065 0.0032473789632250674
90.75809605200065 0.003427032598615727
92.60214649250065 0.003621425324502119
94.44619693300065 0.003832139057759323
96.29024737350065 0.0040609612538341725
98.13429781400065 0.004309915199097512
99.97834825450064 0.004581294971262764
101.82239869500064 0.004877705693404396
103.66644913550064 0.00520210971372197
105.51049957600064 0.005557879293831263
107.35455001650064 0.0059488562427969256
109.19860045700064 0.006379418629521333
111.04265089750064 0.006854554145565853
112.88670133800063 0.007379938726364519
114.73075177850063 0.00796201744913365
116.57480221900063 0.008608082182172353
118.41885265950063 0.009326336486787488
120.26290310000063 0.01012593219993281
122.10695354050063 0.01101695305030288
123.95100398100062 0.012010307450817076
125.79505442150062 0.013117474024917733
127.63910486200062 0.014350018504216957
129.48315530250062 0.015718769645890817
131.32720574300063 0.017232508186124186
133.17125618350065 0.018895996661490132
135.01530662400066 0.02070718136722092
136.85935706450067 0.02265347142740615
138.70340750500068 0.02470720579885461
140.5474579455007 0.026820827381136263
142.3915083860007 0.028922924439128174
144.23555882650072 0.030917061125778383
146.07960926700073 0.032685817636621026
147.92365970750075 0.03410202185173703
149.76771014800076 0.035047141057015646
151.61176058850077 0.035433376533768685
153.45581102900078 0.03522278035935342
155.2998614695008 0.03443619438185168
157.1439119100008 0.03314829153872666
158.98796235050082 0.03147080835535502
160.83201279100084 0.02953054025807178
162.67606323150085 0.027449320447576406
164.52011367200086 0.02533052622219532
166.36416411250087 0.023253055730443836
168.2082145530009 0.02127121001707675
170.0522649935009 0.019418057428283248
171.8963154340009 0.017710157405156298
173.74036587450092 0.01615225910398724
175.58441631500094 0.014741288671914045
177.42846675550095 0.013469417181652813
179.27251719600096 0.0123262602364778
181.11656763650097 0.011300365848170485
182.960618077001 0.01038016625120638
184.804668517501 0.00955454889019913
186.648718958001 0.00881316891752014
188.49276939850103 0.008146593191057747
190.33681983900104 0.007546338920743842
192.18087027950105 0.007004849717966311
194.02492072000106 0.006515437125620435
195.86897116050108 0.006072205531983346
197.7130216010011 0.005669971513277335
199.5570720415011 0.00530418413342037
201.4011224820011 0.004970849819285987
203.24517292250113 0.004666463597271153
205.08922336300114 0.004387947354592755
206.93327380350115 0.0041325951267346
208.77732424400116 0.003898025043985326
210.62137468450118 0.0036821373851069787
212.4654251250012 0.003483078113317493
214.3094755655012 0.0032992072629801526
216.15352600600121 0.003129071575521207
217.99757644650123 0.0029713808319740166
219.84162688700124 0.002824987386099358
221.68567732750125 0.002688868459721985
223.52972776800127 0.002562110817088125
225.37377820850128 0.0024438974858087804
227.2178286490013 0.002333496237520175
229.0618790895013 0.002230249581619258
230.90592953000132 0.0021335660605350097
232.74997997050133 0.0020429126653780873
234.59403041100134 0.0019578082169552664
236.43808085150135 0.0018778175795408135
238.28213129200137 0.0018025465939455671
240.12618173250138 0.0017316376327595963
241.9702321730014 0.0016647656945642738
243.8142826135014 0.0016016349657654147
245.65833305400142 0.0015419757887962676
247.50238349450143 0.001485541984041053
249.34643393500144 0.009862177445679268
251.19048437550146 0.009941674506823808
253.03453481600147 0.010026806407633381
254.87858525650148 0.01011749424943566
256.72263569700146 0.010213676848640168
258.56668613750145 0.010315309594401918
260.41073657800143 0.010422363456315564
262.2547870185014 0.010534824126208965
264.0988374590014 0.01065269128027654
265.9428878995014 0.0107759779496744
267.78693834000137 0.0109047099893342
269.63098878050135 0.011038925636177846
271.47503922100134 0.011178675149161533
273.3190896615013 0.011324020524671852
275.1631401020013 0.011475035281761563
277.0071905425013 0.011631804312567382
278.8512409830013 0.01179442379401357
280.69529142350126 0.011963001157587732
282.53934186400124 0.012137655114591054
284.3833923045012 0.012318515734825581
286.2274427450012 0.01250572457719506
288.0714931855012 0.01269943487117192
289.9155436260012 0.012899811748528462
291.75959406650117 0.013107032525151784
293.60364450700115 0.013321287033165386
295.44769494750113 0.013542778003971466
297.2917453880011 0.013771721503211074
299.1357958285011 0.01400834741902035
300.9798462690011 0.014252900005343188
302.82389670950107 0.014505638482449745
304.66794715000105 0.01476683769720929
306.51199759050104 0.015036788846080376
308.356048031001 0.015315800264214998
310.200098471501 0.015604198284531195
312.044148912001 0.015902328171095326
313.888199352501 0.01621055513167594
315.73224979300096 0.016529265414891532
317.57630023350094 0.016858867497980375
319.42035067400093 0.017199793371878415
321.2644011145009 0.017552499931008558
323.1084515550009 0.017917470475968877
324.9525019955009 0.018295216338167358
326.79655243600087 0.018686278636397134
328.64060287650085 0.019091230176388398
330.48465331700083 0.019510677505525112
332.3287037575008 0.019945263136188943
334.1727541980008 0.020395667952605983
336.0168046385008 0.020862613817640457
337.86085507900077 0.021346866397725213
339.70490551950076 0.02184923822606217
341.54895596000074 0.02237059202639435
343.3930064005007 0.02291184432207343
345.2370568410007 0.02347396935785574
347.0811072815007 0.024058003364894755
348.9251577220007 0.024665049202801666
350.76920816250066 0.025296281416468443
352.61325860300065 0.02595295174964685
354.45730904350063 0.026636395162117955
356.3013594840006 0.02734803640274543
358.1454099245006 0.02808939719686961
359.9894603650006 0.028862104113468158
361.83351080550057 0.02966789718539945
363.67756124600055 0.030508639364990656
365.52161168650053 0.03138632690738921
367.3656621270005 0.03230310078564463
369.2097125675005 0.03326125925463623
371.0537630080005 0.03426327169595603
372.8978134485005 0.03531179389297676
374.74186388900046 0.03640968490491688
376.58591432950044 0.037560025731140353
378.4299647700004 0.03876613998265544
380.2740152105004 0.04003161680733164
382.1180656510004 0.04136033634935925
383.9621160915004 0.04275649806266457
385.80616653200036 0.04422465224322239
387.65021697250035 0.04576973519748966
389.49426741300033 0.04739710852471405
391.3383178535003 0.04911260306105385
393.1823682940003 0.05068075721532104
395.0264187345003 0.05259574527347277
396.87046917500027 0.054619604809942296
398.71451961550025 0.05676060280174614
400.55857005600024 0.05902779071911258
402.4026204965002 0.061431093587658935
404.2466709370002 0.06398141076260444
406.0907213775002 0.06669073015169488
407.9347718180002 0.06957225790646043
409.77882225850016 0.07264056593350618
411.62287269900014 0.0759117599674349
413.4669231395001 0.07940367140480843
415.3109735800001 0.08313607663590586
417.1550240205001 0.08713094824118253
418.9990744610001 0.09141274315713117
420.84312490150006 0.09600873377795142
422.68717534200005 0.10094938896218715
424.53122578250003 0.10626881307430171
426.375276223 0.11200525252504645
428.2193266635 0.11820168079130246
430.063377104 0.12490647459532263
431.90742754449997 0.13217419578562345
433.75147798499995 0.14006649543556793
435.59552842549994 0.14865315865599896
437.4395788659999 0.15801331041400948
439.2836293064999 0.16823680393311263
441.1276797469999 0.17942581347812855
442.9717301874999 0.19169665162548633
444.81578062799986 0.20518182609889568
446.65983106849984 0.22003234074439235
448.5038815089998 0.2364202258852538
450.3479319494998 0.2545412500439728
452.1919823899998 0.2746177101896842
454.0360328304998 0.29690110993790975
455.88008327099976 0.32167439808094805
457.72413371149975 0.3492532303586066
459.56818415199973 0.3799854043613789
461.4122345924997 0.4142471618391559
463.2562850329997 0.4524344116562424
465.1003354734997 0.49494606712227074
466.94438591399967 0.5421556225832274
468.78843635449965 0.5943659341531898
470.63248679499964 0.6517412663413424
472.4765372354996 0.7142107848768078
474.3205876759996 0.7813402182280452
476.1646381164996 0.85217551016607
478.0086885569996 0.9250763701355316
479.85273899749956 0.9975797380759103
481.69678943799954 1.0663594480164833
483.5408398784995 1.127365576927147
485.3848903189995 1.1762118349516868
487.2289407594995 1.2088099137260946
489.0729911999995 1.2221315502205805
490.91704164049946 1.2148678837488684
492.76109208099945 1.1877377698815352
494.60514252149943 1.1433167507133162
496.4491929619994 1.085458727462027
498.2932434024994 1.0185369974565295
500.1372938429994 0.9467537060469087
501.98134428349937 0.8736744365960962
503.82539472399935 0.8020204628292392
505.66944516449934 0.7336646804874922
507.5134956049993 0.6697476489288638
509.3575460454993 0.610840519350149
511.2015964859993 0.5575385430374896
513.0456469264993 0.5088794636065753
514.8896973669994 0.4650181967457873
516.7337478074994 0.42559657937073964
518.5777982479995 0.3902196263199269
520.4218486884995 0.35848835935888496
522.2658991289995 0.3300195011008427
524.1099495694996 0.3044562533629531
525.9540000099996 0.2814732637993449
527.7980504504997 0.2607779588685052
529.6421008909997 0.24210971776607215
531.4861513314997 0.2252378557520414
533.3302017719998 0.2099590343706264
535.1742522124998 0.1960944795109658
537.0183026529999 0.1834872324829734
538.8623530934999 0.17199955890783108
540.706403534 0.16151057701711322
542.5504539745 0.1519141282426286
544.394504415 0.1431168901460931
546.2385548555001 0.13503671902846828
548.0826052960001 0.12760120318139972
549.9266557365002 0.12074640523031169
551.7707061770002 0.11441577178451359
553.6147566175002 0.10855918964883587
555.4588070580003 0.1031321695371397
557.3028574985003 0.09809514017856276
559.1469079390004 0.09341283769717444
560.9909583795004 0.08905377704840425
562.8350088200004 0.08498979404638729
564.6790592605005 0.08119564808801637
566.5231097010005 0.0776486770669587
568.3671601415006 0.0743284971816403
570.2112105820006 0.07121674138911863
572.0552610225006 0.06829683115851014
573.8993114630007 0.06555377695045601
575.7433619035007 0.06297400350958676
577.5874123440008 0.060545196620385947
579.4314627845008 0.058256168456994474
581.2755132250009 0.05609673906644724
583.1195636655009 0.05405763187312752
584.9636141060009 0.052130381388952145
586.807664546501 0.0503072515667392
588.651714987001 0.048581163450000596
590.495765427501 0.04694563095668114
592.3398158680011 0.04539470379191316
594.1838663085011 0.04392291661972118
596.0279167490012 0.04252524373921247
597.8719671895012 0.041197058610022305
599.7160176300013 0.03993409765709143
601.5600680705013 0.038732427858304296
603.4041185110013 0.0375884176818604
605.2481689515014 0.03649871099496805
607.0922193920014 0.035460203612793284
608.9362698325015 0.03447002219763371
610.7803202730015 0.033525505253919535
612.6243707135015 0.03262418599564294
614.4684211540016 0.03176377688983634
616.3124715945016 0.030942155703320002
618.1565220350017 0.030157352900597834
620.0005724755017 0.034900781638216215
621.8446229160018 0.034269062010442164
623.6886733565018 0.03367103399976137
625.5327237970018 0.03310529709780339
627.3767742375019 0.032570558996886566
629.2208246780019 0.03206562889284516
631.064875118502 0.031589411485012445
632.908925559002 0.031140901620023465
634.752975999502 0.03071917953339229
636.5970264400021 0.0303234066495039
638.4410768805021 0.029952821906851525
640.2851273210022 0.029606738581148394
642.1291777615022 0.029284541584444976
643.9732282020022 0.028985685223679152
645.8172786425023 0.028709691407268985
647.6613290830023 0.028456148293513492
649.5053795235024 0.028224709379789294
651.3494299640024 0.02801509303691575
653.1934804045025 0.027827082498710708
655.0375308450025 0.02766052632278653
656.8815812855025 0.02751533934516468
658.7256317260026 0.02739150415845893
660.5696821665026 0.027289073151349447
662.4137326070027 0.027208171156028277
664.2577830475027 0.02714899876045082
666.1018334880027 0.02711183635382592
667.9458839285028 0.027097048987104175
669.7899343690028 0.0271050921456163
671.6339848095029 0.02713651854885911
673.4780352500029 0.02719198611318121
675.322085690503 0.027272267237306434
677.166136131003 0.02737825959885594
679.010186571503 0.027510998682973114
680.8542370120031 0.02767167230258781
682.6982874525031 0.027861637414616044
684.5423378930032 0.02808243958836157
686.3863883335032 0.02833583554244462
688.2304387740032 0.028623819235504635
690.0744892145033 0.028948652074219594
691.9185396550033 0.029312897889836112
693.7625900955034 0.029719463430425926
695.6066405360034 0.030171645217845523
697.4506909765034 0.03067318372051002
699.2947414170035 0.03122832588582946
701.1387918575035 0.03184189714271927
702.9828422980036 0.03251938399722688
704.8268927385036 0.03326702825821706
706.6709431790036 0.03409193367422882
708.5149936195037 0.035002185226163496
710.3590440600037 0.036006980332339476
712.2030945005038 0.037116769522053124
714.0471449410038 0.03834340132932184
715.8911953815038 0.03970026167025119
717.7352458220039 0.04120239095541098
719.5792962625039 0.04286655147034648
721.423346703004 0.04471120153975719
723.267397143504 0.04675630967529189
725.111447584004 0.049022909102279626
726.9554980245041 0.05153224907480755
728.7995484650041 0.05430434468944423
730.6435989055042 0.04901537490086026
732.4876493460042 0.05248056415778671
734.3316997865043 0.05622915183260173
736.1757502270043 0.060240216043149865
738.0198006675043 0.06446632665834795
739.8638511080044 0.06882503465217332
741.7079015485044 0.07319189330411387
743.5519519890045 0.07739840375416496
745.3960024295045 0.08123915783426905
747.2400528700045 0.08449167674587538
749.0841033105046 0.08694889028219849
750.9281537510046 0.08845815395907955
752.7722041915047 0.08895501129360023
754.6162546320047 0.08847899166702154
756.4603050725048 0.08716487762810425
758.3043555130048 0.08521312919915308
760.1484059535048 0.0828510659888602
761.9924563940049 0.08029755379689488
763.8365068345049 0.07773921716236121
765.680557275005 0.07531984291027932
767.524607715505 0.0731402124042829
769.368658156005 0.07126408607989829
771.2127085965051 0.06972659343738535
773.0567590370051 0.06854258525534264
774.9008094775052 0.06771373774426068
776.7448599180052 0.06723404260896802
778.5889103585052 0.06709377438280227
780.4329607990053 0.06728221300685186
782.2770112395053 0.06778943352806721
784.1210616800054 0.06860743903118774
785.9651121205054 0.06973085519310569
787.8091625610055 0.07115734815886501
789.6532130015055 0.07288788053794135
791.4972634420055 0.07492688487981276
793.3413138825056 0.07728240873398759
795.1853643230056 0.07996626819554199
797.0294147635057 0.08299423559985568
798.8734652040057 0.08638628004617484
800.7175156445057 0.09016687539975327
802.5615660850058 0.09436538840101796
804.4056165255058 0.09901655881511566
806.2496669660059 0.10416108367703432
808.0937174065059 0.10984631820717891
809.937767847006 0.11612710648203448
811.781818287506 0.12306675496454772
813.625868728006 0.13073816087740392
815.4699191685061 0.13922510418391576
817.3139696090061 0.14862370518158796
819.1580200495061 0.15904403721505206
821.0020704900062 0.17061186244822651
822.8461209305062 0.18347042300514044
824.6901713710063 0.1977821627104254
826.5342218115063 0.21373016543670323
828.3782722520064 0.2315189596421644
830.2223226925064 0.2513741347735965
832.0663731330064 0.273539918371136
833.9104235735065 0.29827344504465736
835.7544740140065 0.32583388845253175
837.5985244545066 0.35646393096121004
839.4425748950066 0.39036028980588344
841.2866253355066 0.4276294300977947
843.1306757760067 0.46822467229348796
844.9747262165067 0.5118625583157186
846.8187766570068 0.5579209669703703
848.6628270975068 0.6053306470695915
850.5068775380068 0.6524862440257432
852.3509279785069 0.6972200123608688
854.1949784190069 0.7526162021431242
856.039028859507 0.7846118721301902
857.883079300007 0.806029229763483
859.727129740507 0.8159095422907494
861.5711801810071 0.8113863082114992
863.4152306215071 0.7939272610823457
865.2592810620072 0.7652107091196423
867.1033315025072 0.7277479933054274
868.9473819430073 0.6843889275183401
870.7914323835073 0.6378718196619068
872.6354828240073 0.5905201984642707
874.4795332645074 0.5441074395620774
876.3235837050074 0.4998541141677623
878.1676341455075 0.4585036044535404
880.0116845860075 0.420428271516464
881.8557350265075 0.3857350576667111
883.6997854670076 0.3543551012152185
885.5438359075076 0.32611268900625767
887.3878863480077 0.3007746931773204
889.2319367885077 0.2780840118175216
891.0759872290078 0.2577809615854732
892.9200376695078 0.23961611126484963
894.7640881100078 0.22335730580115915
896.6081385505079 0.20879290336058862
898.4521889910079 0.19573264468883295
900.296239431508 0.18400711567837308
902.140289872008 0.17346643419949231
903.984340312508 0.1639785635757848
905.8283907530081 0.1554275009436883
907.6724411935081 0.14771148723011987
909.5164916340082 0.1407413200762908
911.3605420745082 0.13443880985023932
913.2045925150082 0.1287353936657677
915.0486429555083 0.12357090744777877
916.8926933960083 0.11889250780322241
918.7367438365084 0.11465373130216466
920.5807942770084 0.1108136771370856
922.4248447175084 0.10733629897705145
924.2688951580085 0.10418979251179575
926.1129455985085 0.10134606628064134
927.9569960390086 0.09878028465370223
929.8010464795086 0.09647047313106602
931.6450969200087 0.09439717736731995
933.4891473605087 0.09254316847164532
935.3331978010087 0.09089318816005452
937.1772482415088 0.08943372824291763
939.0212986820088 0.08815283972261445
940.8653491225089 0.08703996746203611
942.7093995630089 0.08608580697564544
944.5534500035089 0.08528218040216232
946.397500444009 0.08462192915253222
948.241550884509 0.08409882109868988
950.0856013250091 0.08370747048676279
951.9296517655091 0.08344326903073496
953.7737022060091 0.08330232687616032
955.6177526465092 0.08328142232429454
957.4618030870092 0.08337795938018713
959.3058535275093 0.08358993233829304
961.1499039680093 0.08391589674984852
962.9939544085094 0.08435494623088896
964.8380048490094 0.08490669467120415
966.6820552895094 0.08557126349517936
968.5261057300095 0.08634927370750517
970.3701561705095 0.08724184253205214
972.2142066110096 0.08825058452248959
974.0582570515096 0.08937761709003315
975.9023074920096 0.09062557045846445
977.7463579325097 0.09199760212065008
979.5904083730097 0.09349741593552888
981.4344588135098 0.09512928607127587
983.2785092540098 0.09689808607046586
985.1225596945098 0.09880932338800427
986.9666101350099 0.10086917983393386
988.8106605755099 0.10308455844269435
990.65471101601 0.10546313738993293
992.49876145651 0.10758657813779407
994.34281189701 0.11032441682827084
996.1868623375101 0.11325365955190383
998.0309127780101 0.11638579780877736
999.8749632185102 0.1197335038572813
1001.7190136590102 0.12331074743359907
1003.5630640995103 0.12713292805353354
1005.4071145400103 0.1312170250259308
1007.2511649805103 0.1355817676518955
1009.0952154210104 0.14024782848669887
1010.9392658615104 0.1452380430122185
1012.7833163020105 0.15057765961922914
1014.6273667425105 0.1562946244453147
1016.4714171830105 0.16241990637247655
1018.3154676235106 0.16898786837827973
1020.1595180640106 0.17603669247822679
1022.0035685045107 0.18360886672076118
1023.8476189450107 0.19175174412882778
1025.6916693855107 0.20051818515498648
1027.5357198260108 0.20996729716427698
1029.3797702665108 0.22016528671388844
1031.2238207070109 0.23118644299117524
1033.067871147511 0.24311427372215721
1034.911921588011 0.25604281817243696
1036.755972028511 0.2700781654971859
1038.600022469011 0.28534021056144765
1040.444072909511 0.30196468325066583
1042.2881233500111 0.3201054908652998
1044.1321737905112 0.3399374158247109
1045.9762242310112 0.3616592115695832
1047.8202746715112 0.38549713659292406
1049.6643251120113 0.41170895731983875
1051.5083755525113 0.4405884309885401
1053.3524259930114 0.4724702434199193
1055.1964764335114 0.50773531393559
1057.0405268740114 0.5468162761545564
1058.8845773145115 0.5902027774369198
1060.7286277550115 0.6384459801209049
1062.5726781955116 0.6921612504041365
1064.4167286360116 0.7520274263273237
1066.2607790765117 0.8187801900129027
1068.1048295170117 0.8931958484603026
1069.9488799575117 0.9760601863835956
1071.7929303980118 1.0681150061525246
1073.6369808385118 1.16997272913085
1075.4810312790119 1.281987644766011
1077.325081719512 1.4040724862539522
1079.169132160012 1.5354536136349182
1081.013182600512 1.6743712189728674
1082.857233041012 1.8177572524916736
1084.701283481512 1.9609653133899665
1086.545333922012 2.09767659749927
1088.3893843625121 2.2201397742146423
1090.2334348030122 2.3198771053944465
1092.0774852435122 2.3888627634903
1093.9215356840123 2.420960988416124
1095.7655861245123 2.4132025314153687
1097.6096365650124 2.3664360640011384
1099.4536870055124 2.2851008967807243
1101.2977374460124 2.170792912866719
1103.1417878865125 2.0427066101192666
1104.9858383270125 1.9034715385440406
1106.8298887675126 1.760201994066934
1108.6739392080126 1.618499997282904
1110.5179896485126 1.49417286859251
1112.3620400890127 1.3663428338296755
1114.2060905295127 1.2480329505534864
1116.0501409700128 1.1397742898444827
1117.8941914105128 1.0415065174329392
1119.7382418510128 0.9527948694029735
1121.5822922915129 0.8729911621697525
1123.426342732013 0.8013460628064988
1125.270393172513 0.7370830570187379
1127.114443613013 0.6794443132077637
1128.958494053513 0.6277169628777453
1130.802544494013 0.5812463158272113
1132.6465949345131 0.5394407170192116
1134.4906453750132 0.5017713034321832
1136.3346958155132 0.4677688407562315
1138.1787462560133 0.4370190538261339
1140.0227966965133 0.4091573388118129
1141.8668471370133 0.38386339371582995
1143.7108975775134 0.36085607427354804
1145.5549480180134 0.33988863599163716
1147.3989984585135 0.32074443210759707
1149.2430488990135 0.3032330825847224
1151.0870993395135 0.2957275117378971
1152.9311497800136 0.2811311787181825
1154.7752002205136 0.26772553805142785
1156.6192506610137 0.25539562866513027
1158.4633011015137 0.2440396914309064
1160.3073515420137 0.23356749629584822
1162.1514019825138 0.22389889551894554
1163.9954524230138 0.21496257232042223
1165.8395028635139 0.20669495800401427
1167.683553304014 0.19903929411295834
1169.527603744514 0.19194481935185478
1171.371654185014 0.185366063824006
1173.215704625514 0.17926223560341742
1175.059755066014 0.17359668680503174
1176.9038055065141 0.16833644816641685
1178.7478559470142 0.16345182274210432
1180.5919063875142 0.15891603067070417
1182.4359568280142 0.1547048981353584
1184.2800072685143 0.1507965846277502
1186.1240577090143 0.14717134346935093
1187.9681081495144 0.14381131126236532
1189.8121585900144 0.1407003225555513
1191.6562090305144 0.14875919480858604
1193.5002594710145 0.14627260352387395
1195.3443099115145 0.1439991378520485
1197.1883603520146 0.141928094916563
1199.0324107925146 0.14004982874695412
1200.8764612330147 0.13835566297308644
1202.7205116735147 0.1429122965792762
1204.5645621140147 0.14165757780117855
1206.4086125545148 0.14056820573583245
1208.2526629950148 0.13963876745202689
1210.0967134355149 0.13886451987164175
1211.940763876015 0.13824135024844955
1213.784814316515 0.13776574213118248
1215.628864757015 0.13743474636036077
1217.472915197515 0.13724595671978956
1219.316965638015 0.13719748992785677
1221.161016078515 0.1372879697121125
1223.0050665190151 0.13751651476421578
1224.8491169595152 0.13788273042223642
1226.6931674000152 0.13838670397443326
1228.5372178405153 0.13902900352387446
1230.3812682810153 0.13981068039744818
1232.2253187215154 0.14073327512673653
1234.0693691620154 0.14179882707269742
1235.9134196025154 0.14300988781192833
1237.7574700430155 0.14436953845032388
1239.6015204835155 0.14588141108109207
1241.4455709240156 0.14754971465934477
1243.2896213645156 0.14937926562591036
1245.1336718050156 0.15137552367985446
1246.9777222455157 0.15354463317381478
1248.8217726860157 0.15589347069024379
1250.6658231265158 0.1584296994518354
1252.5098735670158 0.1611618313279077
1254.3539240075158 0.1640992973228003
1256.1979744480159 0.16725252757532105
1258.042024888516 0.1706330420633411
1259.886075329016 0.1742535533988014
1261.730125769516 0.17812808332037045
1263.574176210016 0.18227209474934944
1265.418226650516 0.18670264157571023
1267.2622770910161 0.19143853869310554
1269.1063275315162 0.196500555213392
1270.9503779720162 0.2019116342733083
1272.7944284125163 0.20769714341091583
1274.6384788530163 0.21388516015168846
1276.4825292935163 0.22050679822041486
1278.3265797340164 0.22759658070434646
1280.1706301745164 0.23519286755659818
1282.0146806150165 0.24333834607005167
1283.8587310555165 0.25208059439560515
1285.7027814960165 0.2614727298491937
1287.5468319365166 0.2715741556715263
1289.3908823770166 0.2824514220878753
1291.2349328175167 0.2941792199630625
1293.0789832580167 0.3068415280334353
1294.9230336985167 0.3205329375526074
1296.7670841390168 0.33536018106616344
1298.6111345795168 0.35144389466716336
1300.4551850200169 0.3689206450226934
1302.299235460517 0.3879452529453425
1304.143285901017 0.40869344309003164
1305.987336341517 0.4313648425474483
1307.831386782017 0.45618633665064623
1309.675437222517 0.48341576353610366
1311.5194876630171 0.513345882779684
1313.3635381035172 0.5463084770471361
1315.2075885440172 0.5826783233022138
1317.0516389845172 0.6228765787234967
1318.8956894250173 0.6673728337463444
1320.7397398655173 0.7166846469816442
1322.5837903060174 0.7713727394833592
1324.4278407465174 0.8320291289926802
1326.2718911870174 0.8992542820802122
1328.1159416275175 0.9736178663648531
1329.9599920680175 1.0555960617534406
1331.8040425085176 1.1454771264254349
1333.6480929490176 1.2432270813400876
1335.4921433895177 1.3327548027985165
1337.3361938300177 1.4441522104059024
1339.1802442705177 1.5594199417051273
1341.0242947110178 1.674209393008064
1342.8683451515178 1.7860032995268988
1344.7123955920179 1.8882444852671687
1346.556446032518 1.974941887078539
1348.400496473018 2.0405423979522292
1350.244546913518 2.081001091461145
1352.088597354018 2.0947077938363714
1353.932647794518 2.0829220510501627
1355.776698235018 2.0495365881018195
1357.6207486755181 2.000269851700283
1359.4647991160182 1.9416045921646419
1361.3088495565182 1.879820484686841
1363.1528999970183 1.820339003874916
1364.9969504375183 1.7674241481788253
1366.8410008780183 1.724160568202871
1368.6850513185184 1.6925881296775869
1370.5291017590184 1.6738852611259327
1372.3731521995185 1.6685281985563891
1374.2172026400185 1.6763871037162987
1376.0612530805186 1.6967457130987145
1377.9053035210186 1.7282508844201365
1379.7493539615186 1.7688177807558316
1381.5934044020187 1.8155397554263217
1383.4374548425187 1.864677626913362
1385.2815052830188 1.9118188700511494
1387.1255557235188 1.9522803534778397
1388.9696061640188 1.981756596008588
1390.8136566045189 1.9970947995915067
1392.657707045019 1.9969645301669823
1394.501757485519 1.9821712068414028
1396.345807926019 1.9554837203237374
1398.189858366519 1.921049070929468
1400.033908807019 1.883623136482682
1401.8779592475191 1.847868853465027
1403.7220096880192 1.817878889659797
1405.5660601285192 1.7969531589281083
1407.4101105690193 1.7875726931191127
1409.2541610095193 1.7914799183561434
1411.0982114500193 1.8097842051867894
1412.9422618905194 1.843035966498964
1414.7863123310194 1.8912368074820347
1416.6303627715195 1.9537727786930967
1418.4744132120195 2.029275426928369
1420.3184636525195 2.1154365310725236
1422.1625140930196 2.208830923754755
1424.0065645335196 2.3048345119017357
1425.8506149740197 2.3977458618558316
1427.6946654145197 2.48120079119587
1429.5387158550197 2.5488835126417384
1431.3827662955198 2.5953940374354953
1433.2268167360198 2.617002743875389
1435.0708671765199 2.6120183521867735
1436.91491761702 2.5806634134066893
1438.75896805752 2.5246002490367134
1440.60301849802 2.4464007083031234
1442.44706893852 2.3491969462225555
1444.29111937902 2.236550507084591
1446.1351698195201 2.112402956720097
1447.9792202600202 1.9809455720083715
1449.8232707005202 1.8463515750564334
1451.6673211410202 1.7124392302438491
1453.5113715815203 1.5823832924189907
1455.3554220220203 1.4585570141716977
1457.1994724625204 1.342518821868469
1459.0435229030204 1.2351070257680021
1460.8875733435204 1.1365893368971445
1462.7316237840205 1.0468222732699828
1464.5756742245205 0.9653929778843452
1466.4197246650206 0.891731857874491
1468.2637751055206 0.8251948926370052
1470.1078255460206 0.7651196962907236
1471.9518759865207 0.7108611327568952
1473.7959264270207 0.6618120997763689
1475.6399768675208 0.6174141361160587
1477.4840273080208 0.577161382391857
1479.3280777485209 0.5406004205375974
1481.172128189021 0.5073277201602107
1483.016178629521 0.4769858315970906
1484.860229070021 0.4492590508910197
1486.704279510521 0.42386899972519515
1488.548329951021 0.4005703766937917
1490.392380391521 0.3791470159958127
1492.2364308320211 0.3594083142509671
1494.0804812725212 0.3411860404579737
1495.9245317130212 0.32433151771440816
1497.7685821535213 0.3087131511761801
1499.6126325940213 0.2942142702144079
1501.4566830345213 0.2807312508057988
1503.3007334750214 0.2681718849299106
1505.1447839155214 0.25645396591798253
1506.9888343560215 0.24550406154521465
1508.8328847965215 0.23525644972465987
1510.6769352370216 0.22565219468184256
1512.5209856775216 0.21663834432138165
1514.3650361180216 0.20816723207163718
1516.2090865585217 0.20019586878706974
1518.0531369990217 0.19268541230312042
1519.8971874395218 0.18560070399169767
1521.7412378800218 0.17890986318043095
1523.5852883205218 0.17258393160181076
1525.4293387610219 0.166596561155165
1527.273389201522 0.16092373921961728
1529.117439642022 0.15554354657201092
1530.961490082522 0.15043594366010804
1532.805540523022 0.1455825815755737
1534.649590963522 0.24355173802668306
1536.4936414040221 0.24074137761135853
1538.3376918445222 0.23817563835336797
1540.1817422850222 0.23584258652696788
1542.0257927255223 0.23373135323189634
1543.8698431660223 0.23183204272642727
1545.7138936065223 0.23013565073332382
1547.5579440470224 0.22863399157234887
1549.4019944875224 0.22731963312125686
1551.2460449280225 0.2261858387351554
1553.0900953685225 0.22522651536476238
1554.9341458090225 0.22443616720991622
1556.7781962495226 0.22380985432786527
1558.6222466900226 0.2233431556881787
1560.4662971305227 0.22303213622914536
1562.3103475710227 0.22287331752555972
1564.1543980115227 0.22286365172597647
1565.9984484520228 0.2230004984597977
1567.8424988925228 0.22328160445176437
1569.6865493330229 0.2237050856142703
1571.530599773523 0.2242694114169944
1573.374650214023 0.22497339135919908
1575.218700654523 0.2258161633931023
1577.062751095023 0.22679718416740752
1578.906801535523 0.22791622097869835
1580.7508519760231 0.22917334533528128
1582.5949024165232 0.23056892805344723
1584.4389528570232 0.2321036358202545
1586.2830032975232 0.2337784291700191
1588.1270537380233 0.23559456183391603
1589.9711041785233 0.23755358143361338
1591.8151546190234 0.22797480829707018
1593.6592050595234 0.2304007801749841
1595.5032555000234 0.23297216221748138
1597.3473059405235 0.23569182613679726
1599.1913563810235 0.2385629566984364
1601.0354068215236 0.24158906064361466
1602.8794572620236 0.24477397703652087
1604.7235077025236 0.24812188909128774
1606.5675581430237 0.251637337544703
1608.4116085835237 0.25532523565241705
1610.2556590240238 0.259190885898831
1612.0997094645238 0.2632399985241298
1613.9437599050239 0.2674787119862068
1615.787810345524 0.27191361549068593
1617.631860786024 0.2765517737390553
1619.475911226524 0.28140075406330517
1621.319961667024 0.2864686561356219
1623.164012107524 0.29176414446389776
1625.008062548024 0.29729648390834873
1626.8521129885241 0.30307557848172034
1628.6961634290242 0.3091120137257615
1630.5402138695242 0.31541710299028153
1632.3842643100243 0.3135534756292492
1634.2283147505243 0.3205598036269245
1636.0723651910243 0.3278707940450241
1637.9164156315244 0.33550130922481797
1639.7604660720244 0.3434672405285944
1641.6045165125245 0.35178558746773486
1643.4485669530245 0.36047454435868564
1645.2926173935246 0.3695535952994296
1647.1366678340246 0.3790436183553542
1648.9807182745246 0.3889669999525136
1650.8247687150247 0.3993477606001157
1652.6688191555247 0.41021169320479567
1654.5128695960248 0.4215865153994425
1656.3569200365248 0.43350203749196903
1658.2009704770248 0.445990347847933
1660.0450209175249 0.4590860177593398
1661.889071358025 0.4728263281250109
1663.733121798525 0.4872515205810817
1665.577172239025 0.5024050760799668
1667.421222679525 0.518334024330047
1669.265273120025 0.5350892879853131
1671.1093235605251 0.552726066024679
1672.9533740010252 0.5604852705706692
1674.7974244415252 0.5802323553121198
1676.6414748820252 0.6010531220599651
1678.4855253225253 0.6230247932678693
1680.3295757630253 0.6462315746251435
1682.1736262035254 0.6707654106852498
1684.0176766440254 0.6907170432438934
1685.8617270845255 0.7183063438760842
1687.7057775250255 0.747552020797101
1689.5498279655255 0.7785867077359515
1691.3938784060256 0.8115562849649397
1693.2379288465256 0.846621457506339
1695.0819792870257 0.8839595501901883
1696.9260297275257 0.923766552925597
1698.7700801680257 0.9662594551189866
1700.6141306085258 1.0116789147117
1702.4581810490258 1.0602923149776176
1704.3022314895259 1.1123972711996502
1706.146281930026 1.168325659830019
1707.990332370526 1.2284482549416833
1709.834382811026 1.2931800709041374
1711.678433251526 1.3629865264487706
1713.522483692026 1.43839056374716
1715.366534132526 1.519980876803721
1717.2105845730262 1.6084214261266399
1719.0546350135262 1.704462440660013
1720.8986854540262 1.8089531320584826
1722.7427358945263 1.922856368237813
1724.5867863350263 2.0472655687497276
1726.4308367755264 2.1834240873045196
1728.2748872160264 2.332747326045892
1730.1189376565264 2.4968477650852225
1731.9629880970265 2.6775629629561406
1733.8070385375265 2.876986348381693
1735.6510889780266 3.0975002190885044
1737.4951394185266 3.3418096961934047
1739.3391898590266 3.612975315087201
1741.1832402995267 3.914440266003245
1743.0272907400267 4.2500457484447285
1744.8713411805268 4.624024094548643
1746.7153916210268 5.040953772058496
1748.5594420615269 5.50565257688639
1750.403492502027 6.022974865894991
1752.247542942527 6.5974656738019375
1754.091593383027 7.2328104420810355
1755.935643823527 7.931008097637439
1757.779694264027 8.691196661638536
1759.623744704527 9.508091504721248
1761.4677951450271 10.37008276255986
1763.3118455855272 11.257209818343949
1765.1558960260272 12.139499812759821
1766.9999464665273 12.976476792219344
1768.8439969070273 13.718857438317842
1770.6880473475273 14.31326520093519
1772.5320977880274 14.70994965238622
1774.3761482285274 14.87206000563114
1776.2201986690275 14.783668797982582
1778.0642491095275 14.453523748275868
1779.9082995500276 13.912966504284622
1781.7523499905276 13.208895004415592
1783.5964004310276 12.394527693348946
1785.4404508715277 11.52100027557374
1787.2845013120277 10.631702163399142
1789.1285517525278 9.759748405794122
1790.9726021930278 8.927930180878304
1792.8166526335278 8.15012690057686
1794.6607030740279 7.433288876310402
1796.504753514528 6.779409419026118
1798.348803955028 6.187198374392556
1800.192854395528 5.653369793179478
1802.036904836028 5.1735651471760455
1803.880955276528 4.742977819778637
1805.7250057170281 4.356752600452985
1807.5690561575282 4.010225338991328
1809.4131065980282 3.6990541066888247
1811.2571570385282 3.419279634933501
1813.1012074790283 3.1673415358862878
1814.9452579195283 2.9400682499652717
1816.7893083600284 2.7346525048995876
1818.6333588005284 2.548619800658766
1820.4774092410285 2.3797945559971643
1822.3214596815285 2.2262666567480123
1824.1655101220285 2.086359924545494
1826.0095605625286 1.9586032555084212
1827.8536110030286 1.8417047073357016
1829.6976614435287 1.7345285354104027
1831.5417118840287 1.6360750238505473
1833.3857623245287 1.545462879838438
1835.2298127650288 1.4619139289810918
1837.0738632055288 1.3847398466043652
1838.9179136460289 1.3133306725287104
1840.761964086529 1.2471448773891811
1842.606014527029 1.1857007722979376
1844.450064967529 1.1285690778612916
1846.294115408029 1.0753664917169514
1848.138165848529 1.0257501150621307
1849.982216289029 0.9794126177683126
1851.8262667295292 0.9360780385623065
1853.6703171700292 0.8954981314865583
1855.5143676105292 0.8574491826034967
1857.3584180510293 0.8217292318817853
1859.2024684915293 0.7881556446064535
1861.0465189320294 0.7565629846919115
1862.8905693725294 0.7268011491330146
1864.7346198130294 0.6987337286718092
1866.5786702535295 0.6722365647337097
1868.4227206940295 0.647196476924805
1870.2667711345296 0.623510138992387
1872.1108215750296 0.6010830842282864
1873.9548720155296 0.579828823919967
1875.7989224560297 0.5596680646961901
1877.6429728965297 0.5405280125305423
1879.4870233370298 0.5223417528065111
1881.3310737775298 0.505047697253676
1883.1751242180299 0.4885890897711729
1885.01917465853 0.47291356419163444
1886.86322509903 0.4579727479314291
1888.70727553953 0.44372190624250707
1890.55132598003 0.43011962244550694
1892.39537642053 0.4171275100982199
1894.23942686103 0.40470995355099854
1896.0834773015301 0.39283387377219586
1897.9275277420302 0.38146851670156806
1899.7715781825302 0.3705852617156988
1901.6156286230303 0.3601574480736797
1903.4596790635303 0.3501602174592746
1905.3037295040303 0.3405703709525332
1907.1477799445304 0.3313662389535374
1908.9918303850304 0.32252756274724714
1910.8358808255305 0.3140353865443976
1912.6799312660305 0.3058719589617199
1914.5239817065305 0.29802064301772835
1916.3680321470306 0.2904658338198999
1918.2120825875306 0.28319288320698516
1920.0561330280307 0.2761880306878906
1921.9001834685307 0.26943834008735257
1923.7442339090308 0.26293164136957703
1925.5882843495308 0.25665647716511014
1927.4323347900308 0.2506020535742637
1929.2763852305309 0.2447581948631767
1931.120435671031 0.2391153017066741
1932.964486111531 0.23366431266604487
1934.808536552031 0.22839666862018154
1936.652586992531 0.2233042798956258
1938.496637433031 0.2183794958653155
1940.3406878735311 0.21361507680755876
1942.1847383140312 0.20900416783624226
1944.0287887545312 0.20454027473078173
1945.8728391950312 0.20021724151004255
1947.7168896355313 0.19602922960860708
1949.5609400760313 0.19197069852650947
1951.4049905165314 0.18803638783504206
1953.2490409570314 0.18422130043160823
1955.0930913975315 0.18052068694595935
1956.9371418380315 0.1769300312086199
1958.7811922785315 0.17344503669997177
1960.6252427190316 0.17006161390540644
1962.4692931595316 0.1667758685082521
1964.3133436000317 0.16358409035789367
1966.1573940405317 0.16048274315569092
1968.0014444810317 0.15746845480602098
1969.8454949215318 0.15453800838405904
1971.6895453620318 0.1516883336758229
1973.5335958025319 0.14891649924956818
1975.377646243032 0.14621970502086884
1977.221696683532 0.14359527527668733
1979.065747124032 0.14104065212644382
1980.909797564532 0.13855338935057618
1982.753848005032 0.13613114661934553
1984.597898445532 0.13377168405672
1986.4419488860322 0.13147285712607157
1988.2859993265322 0.12923261181616283
1990.1300497670322 0.12704898010750454
1991.9741002075323 0.12492007570063164
1993.8181506480323 0.1228440899891978
1995.6622010885324 0.12081928826203027
1997.5062515290324 0.11884400611942948
1999.3503019695324 0.11691664609005056
2001.1943524100325 0.11503567443567402
2003.0384028505325 0.11319961813206504
2004.8824532910326 0.11140706201494907
2006.7265037315326 0.10965664608088861
2008.5705541720326 0.10794706293355322
2010.4146046125327 0.10627705536652245
2012.2586550530327 0.10464541407436322
2014.1027054935328 0.10305097548428034
2015.9467559340328 0
2017.7908063745328 0
2019.634856815033 0
2021.478907255533 0
2023.322957696033 0
2025.167008136533 0
2027.011058577033 0
2028.855109017533 0
2030.6991594580331 0
2032.5432098985332 0
2034.3872603390332 0
2036.2313107795333 0
2038.0753612200333 0
2039.9194116605333 0
2041.7634621010334 0
2043.6075125415334 0
2045.4515629820335 0
2047.2956134225335 0
2049.1396638630335 0
2050.9837143035334 0
2052.827764744033 0
2054.671815184533 0
2056.515865625033 0
2058.3599160655326 0
2060.2039665060324 0
2062.0480169465322 0
2063.892067387032 0
2065.736117827532 0
2067.5801682680317 0
2069.4242187085315 0
2071.2682691490313 0
2073.112319589531 0
2074.956370030031 0
2076.8004204705308 0
2078.6444709110306 0
2080.4885213515304 0
2082.33257179203 0
2084.17662223253 0
2086.02067267303 0
2087.8647231135296 0
2089.7087735540294 0
2091.5528239945293 0
2093.396874435029 0
2095.240924875529 0
2097.0849753160287 0
2098.9290257565285 0
2100.7730761970283 0
2102.617126637528 0
2104.461177078028 0
2106.3052275185278 0
2108.1492779590276 0
2109.9933283995274 0
2111.837378840027 0
2113.681429280527 0
2115.525479721027 0
2117.3695301615267 0
2119.2135806020265 0
2121.0576310425263 0
2122.901681483026 0
2124.745731923526 0
2126.5897823640257 0
2128.4338328045255 0
2130.2778832450254 0
2132.121933685525 0
2133.965984126025 0
2135.810034566525 0
2137.6540850070246 0
2139.4981354475244 0
2141.3421858880242 0
2143.186236328524 0
2145.030286769024 0
2146.8743372095237 0
2148.7183876500235 0
2150.5624380905233 0
2152.406488531023 0
2154.250538971523 0
2156.0945894120227 0
2157.9386398525226 0
2159.7826902930224 0
2161.626740733522 0
2163.470791174022 0
2165.314841614522 0
2167.1588920550216 0
2169.0029424955214 0
2170.8469929360213 0
2172.691043376521 0
2174.535093817021 0
2176.3791442575207 0
2178.2231946980205 0
2180.0672451385203 0
2181.91129557902 0
2183.75534601952 0
2185.5993964600198 0
2187.4434469005196 0
2189.2874973410194 0
2191.131547781519 0
2192.975598222019 0
2194.819648662519 0
2196.6636991030186 0
2198.5077495435185 0
2200.3517999840183 0
2202.195850424518 0
2204.039900865018 0
2205.8839513055177 0
2207.7280017460175 0
2209.5720521865173 0
2211.416102627017 0
2213.260153067517 0
2215.104203508017 0
2216.9482539485166 0
2218.7923043890164 0
2220.636354829516 0
2222.480405270016 0
2224.324455710516 0
2226.1685061510157 0
2228.0125565915155 0
2229.8566070320153 0
2231.700657472515 0
2233.544707913015 0
2235.3887583535147 0
2237.2328087940145 0
2239.0768592345144 0
2240.920909675014 0
2242.764960115514 0
2244.609010556014 0
2246.4530609965136 0
2248.2971114370134 0
2250.1411618775132 0
2251.985212318013 0
2253.829262758513 0
2255.6733131990127 0
2257.5173636395125 0
2259.3614140800123 0
2261.205464520512 0
2263.049514961012 0
2264.8935654015118 0
2266.7376158420116 0
2268.5816662825114 0
2270.425716723011 0
2272.269767163511 0
2274.113817604011 0
2275.9578680445106 0
2277.8019184850104 0
2279.6459689255103 0
2281.49001936601 0
2283.33406980651 0
2285.1781202470097 0
2287.0221706875095 0
2288.8662211280093 0
2290.710271568509 0
2292.554322009009 0
2294.3983724495088 0
2296.2424228900086 0
2298.0864733305084 0
2299.930523771008 0
2301.774574211508 0
2303.618624652008 0
2305.4626750925077 0
2307.3067255330075 0
2309.1507759735073 0
2310.994826414007 0
2312.838876854507 0
2314.6829272950067 0
2316.5269777355065 0
2318.3710281760063 0
2320.215078616506 0
2322.059129057006 0
2323.903179497506 0
2325.7472299380056 0
2327.5912803785054 0
2329.4353308190052 0
2331.279381259505 0
2333.123431700005 0
2334.9674821405047 0
2336.8115325810045 0
2338.6555830215043 0
2340.499633462004 0
2342.343683902504 0
2344.1877343430037 0
2346.0317847835036 0
2347.8758352240034 0
2349.719885664503 0
2351.563936105003 0
2353.407986545503 0
2355.2520369860026 0
2357.0960874265024 0
2358.9401378670022 0
2360.784188307502 0
2362.628238748002 0
2364.4722891885017 0
2366.3163396290015 0
2368.1603900695013 0
2370.004440510001 0
2371.848490950501 0
2373.6925413910008 0
2375.5365918315006 0
2377.3806422720004 0
2379.2246927125 0
2381.068743153 0
2382.9127935935 0
2384.7568440339996 0
2386.6008944744995 0
2388.4449449149993 0
2390.288995355499 0
2392.133045795999 0
2393.9770962364987 0
2395.8211466769985 0
2397.6651971174983 0
2399.509247557998 0
2401.353297998498 0
2403.197348438998 0
2405.0413988794976 0
2406.8854493199974 0
2408.729499760497 0
2410.573550200997 0
2412.417600641497 0
2414.2616510819967 0
2416.1057015224965 0
2417.9497519629963 0
2419.793802403496 0
2421.637852843996 0
2423.4819032844957 0
2425.3259537249955 0
2427.1700041654954 0
2429.014054605995 0
2430.858105046495 0
2432.702155486995 0
2434.5462059274946 0
2436.3902563679944 0
2438.2343068084942 0
2440.078357248994 0
2441.922407689494 0
2443.7664581299937 0
2445.6105085704935 0
2447.4545590109933 0
2449.298609451493 0
2451.142659891993 0
2452.9867103324927 0
2454.8307607729926 0
2456.6748112134924 0
2458.518861653992 0
2460.362912094492 0
2462.206962534992 0
2464.0510129754916 0
2465.8950634159914 0
2467.7391138564913 0
2469.583164296991 0
2471.427214737491 0
2473.2712651779907 0
2475.1153156184905 0
2476.9593660589903 0
2478.80341649949 0
2480.64746693999 0
2482.4915173804898 0
2484.3355678209896 0
2486.1796182614894 0
2488.023668701989 0
2489.867719142489 0
2491.711769582989 0
2493.5558200234886 0
2495.3998704639885 0
2497.2439209044883 0
2499.087971344988 0
2500.932021785488 0
2502.7760722259877 0
2504.6201226664875 0
2506.4641731069873 0
2508.308223547487 0
2510.152273987987 0
2511.996324428487 0
2513.8403748689866 0
2515.6844253094864 0
2517.5284757499862 0
2519.372526190486 0
2521.216576630986 0
2523.0606270714857 0
2524.9046775119855 0
2526.7487279524853 0
2528.592778392985 0
2530.436828833485 0
2532.2808792739847 0
2534.1249297144846 0
2535.9689801549844 0
2537.813030595484 0
2539.657081035984 0
2541.501131476484 0
2543.3451819169836 0
2545.1892323574834 0.09079834482758621
2547.0332827979832 0.0922000134486574
2548.877333238483 0.09363431236192962
2550.721383678983 0.09510225979832011
2552.5654341194827 0.09660491391721844
2554.4094845599825 0.09814337469529189
2556.2535350004823 0.09971878592007719
2558.097585440982 0.10133233729503759
2559.941635881482 0.10298526666324397
2561.7856863219818 0.10467886235735983
2563.6297367624816 0.10641446568417183
2565.4737872029814 0.10819347355251532
2567.317837643481 0.11001734125410302
2569.161888083981 0.11188758540747766
2571.005938524481 0.11380578707608188
2572.8499889649806 0.1157735950722767
2574.6940394054805 0.11779272946004897
2576.5380898459803 0.11986498527013473
2578.38214028648 0.12199223644235911
2580.22619072698 0.12417644001115816
2582.0702411674797 0.12641964055151753
2583.9142916079795 0.1287239749039438
2585.7583420484793 0.1310916771985894
2587.602392488979 0.13352508420029277
2589.446442929479 0.13602664099808445
2591.290493369979 0.1385989070646669
2593.1345438104786 0.14124456271350824
2594.9785942509784 0.14396641598352825
2596.822644691478 0.14676740998390916
2598.666695131978 0.14965063073436294
2600.510745572478 0.15261931553925528
2602.3547960129777 0.15567686193735084
2604.1988464534775 0.15882683727263988
2606.0428968939773 0.1620729889357647
2607.886947334477 0.16541925533003
2609.730997774977 0.16886977762089342
2611.5750482154767 0.17242891233324595
2613.4190986559765 0.17610124486676018
2615.2631490964764 0.17989160400617007
2617.107199536976 0.1838050775106222
2618.951249977476 0.1878470288742811
2620.795300417976 0.1920231153592752
2622.6393508584756 0.1963393074119304
2624.4834012989754 0.20080190958417385
2626.3274517394752 0.2054175830941295
2628.171502179975 0.21019337017341228
2630.015552620475 0.21513672036363043
2631.8596030609747 0.2202555189413071
2633.7036535014745 0.22555811766904996
2635.5477039419743 0.2310533680915747
2637.391754382474 0.2367506576183921
2639.235804822974 0.24265994866092733
2641.0798552634737 0.2487918211208984
2642.9239057039736 0.25515751855935837
2644.7679561444734 0.26176899841236617
2646.612006584973 0.26863898666033414
2648.456057025473 0.27578103740432064
2650.300107465973 0.2832095978546019
2652.1441579064726 0.2909400792955837
2653.9882083469724 0.2989889346574363
2655.8322587874723 0.30737374339983914
2657.676309227972 0.3161133044981513
2659.520359668472 0.32522773841863134
2661.3644101089717 0.3347385990786774
2663.2084605494715 0.34466899691240455
2665.0525109899713 0.3550437343034574
2666.896561430471 0.3658894548084147
2668.740611870971 0.3772348077785169
2670.5846623114708 0.3891106301983248
2672.4287127519706 0.4015501478014408
2674.2727631924704 0.41458919780049147
2676.11681363297 0.4282664758868712
2677.96086407347 0.4426238105219992
2679.80491451397 0.4577064679639037
2681.6489649544696 0.4735634919600809
2683.4930153949695 0.4919934619110264
2685.3370658354693 0.5095903424888788
2687.181116275969 0.5281360290043374
2689.025166716469 0.547698956718113
2690.8692171569687 0.568353740028162
2692.7132675974685 0.5901818414284168
2694.5573180379683 0.61327232462418
2696.401368478468 0.6377227038003443
2698.245418918968 0.6636399029324792
2700.089469359468 0.6911413412480016
2701.9335197999676 0.7203561635429357
2703.7775702404674 0.7514266371073028
2705.621620680967 0.7845097405889523
2707.465671121467 0.8197789743251614
2709.309721561967 0.8574264266022993
2711.1537720024667 0.8976651360915435
2712.9978224429665 0.94073179749582
2714.8418728834663 0.9868898653898042
2716.685923323966 1.0364331205160595
2718.529973764466 1.0896897736008464
2720.3740242049657 1.1470271942559822
2722.2180746454655 1.2088573669001277
2724.0621250859654 1.2756431919702795
2725.906175526465 1.3479057689964904
2727.750225966965 1.4262328181714978
2729.594276407465 1.511288418306272
2731.4383268479646 1.6038242603920518
2733.2823772884644 1.7046926353308889
2735.1264277289642 1.814861388217529
2736.970478169464 1.941597418839444
2738.814528609964 2.0739160667849923
2740.6585790504637 2.219317977728932
2742.5026294909635 2.3794297172857775
2744.3466799314633 2.5561043286201586
2746.190730371963 2.7514505401230793
2748.034780812463 2.967862818890054
2749.8788312529628 3.208050217383151
2751.7228816934626 3.4750604845406787
2753.5669321339624 3.7722936564596843
2755.410982574462 4.103495970335711
2757.255033014962 4.472720037976265
2759.099083455462 4.8842303107921445
2760.9431338959616 5.3423236105727145
2762.7871843364615 5.851022988062349
2764.6312347769613 6.413590677221918
2766.475285217461 7.031796185695538
2768.319335657961 7.704876838856341
2770.1633860984607 8.4281554761977
2772.0074365389605 9.191356469724498
2773.8514869794603 9.976812934009883
2775.69553741996 10.75799613802512
2777.53958786046 11.499081052039651
2779.38363830096 12.156447243403187
2781.2276887414596 12.682851369423961
2783.0717391819594 13.034259599403402
2784.915789622459 13.1780556314799
2786.759840062959 13.10014247779041
2788.603890503459 12.808263244866161
2790.4479409439587 12.330159013393827
2792.2919913844585 11.707339808104832
2794.1360418249583 10.98690998299096
2795.980092265458 10.214130488198162
2797.824142705958 9.427406047923693
2799.6681931464577 8.66297997467409
2801.5122435869575 7.927267714814044
2803.3562940274574 7.239382633282931
2805.200344467957 6.605477370301996
2807.044394908457 6.027317170072099
2808.888445348957 5.503761135873828
2810.7324957894566 5.031901955663286
2812.5765462299564 4.607883048575878
2814.4205966704562 4.227451309424149
2816.264647110956 3.886310709169611
2818.108697551456 3.580334421121189
2819.9527479919557 3.3056809204212914
2821.7967984324555 3.0588474876814185
2823.6408488729553 2.8366845762381256
2825.484899313455 2.6363869260706925
2827.328949753955 2.4554718552534855
2829.1730001944547 2.291751380042157
2831.0170506349546 2.143302266891063
2832.8611010754544 2.0084364419229366
2834.705151515954 1.8856731022912672
2836.549201956454 1.7737131931426586
2838.393252396954 1.6714164969748748
2840.2373028374536 1.5777813363106836
2842.0813532779534 1.4919267537810577
2843.9254037184533 1.4130769650946085
2845.769454158953 1.3405478533897646
2847.613504599453 1.2737352710436765
2849.4575550399527 1.2121049263215196
2851.3016054804525 1.155183650544623
2853.1456559209523 1.1025518626247335
2854.989706361452 1.0538370694305093
2856.833756801952 1.0087082611631295
2858.6778072424518 0.9668710800266339
2860.5218576829516 0.9280636576952784
2862.3659081234514 0.8920530323528636
2864.209958563951 0.8586320694880725
2866.054009004451 0.8276168223213428
2867.898059444951 0.7988442778818332
2869.7421098854506 0.772170443512027
2871.5861603259505 0.7474687360921217
2873.4302107664503 0.7246286426441348
2875.27426120695 0.7035546262329662
2877.11831164745 0.6841652551785484
2878.9623620879497 0.6663925363569144
2880.8064125284495 0.6501814344489264
2882.6504629689493 0.6354895577868377
2884.494513409449 0.6222869869696306
2886.338563849949 0.610556213145928
2888.182614290449 0.6002921365068663
2890.0266647309486 0.5915020487386021
2891.8707151714484 0.5842054812119993
2893.714765611948 0.5784337371256135
2895.558816052448 0.574228832612834
2897.402866492948 0.5716414401388179
2899.2469169334477 0.570727250526903
2901.0909673739475 0.5715409495841923
2902.9350178144473 0.5741267660314378
2904.779068254947 0.5785043613624594
2906.623118695447 0.584648857728844
2908.4671691359467 0.592464327254079
2910.3112195764465 0.6017515371776376
2912.1552700169464 0.612173662403651
2913.999320457446 0.6232282559073214
2915.843370897946 0.6342392072782398
2917.687421338446 0.6443859826713978
2919.5314717789456 0.6527843083361086
2921.3755222194454 0.6586180845931299
2923.2195726599452 0.6612978547625298
2925.063623100445 0.6605981360745184
2926.907673540945 0.6567222117074796
2928.7517239814447 0.6502678358111833
2930.5957744219445 0.6421087823897044
2932.4398248624443 0.6332391773750937
2934.283875302944 0.6246321809816142
2936.127925743444 0.6171454577187335
2937.9719761839438 0.6114801328033613
2939.8160266244436 0.6081819830332919
2941.6600770649434 0.6076674204912534
2943.504127505443 0.6102588693633434
2945.348177945943 0.6162192560836729
2947.192228386443 0.6257800914299184
2949.0362788269426 0.6391607047391066
2950.8803292674424 0.6565775712534904
2952.7243797079423 0.6782427990994645
2954.568430148442 0.7043501968715771
2956.412480588942 0.7350463486322804
2958.2565310294417 0.7703832278310498
2960.1005814699415 0.810248737652877
2961.9446319104413 0.8542732335002011
2963.788682350941 0.9017151313901391
2965.632732791441 0.9513389040245874
2967.4767832319408 1.0013148668776188
2969.3208336724406 1.0491893223103028
2971.1648841129404 1.0919861810535594
2973.00893455344 1.126490093042801
2974.85298499394 1.149710314587302
2976.69703543444 1.1594381019549471
2978.5410858749397 1.154729093262394
2980.3851363154395 1.1361290358401912
2982.2291867559393 1.1055490190125354
2984.073237196439 1.0658429208662152
2985.917287636939 1.0202528762318963
2987.7613380774387 0.9719049512997907
2989.6053885179385 0.923469676969204
2991.4494389584383 0.8770112458345092
2993.293489398938 0.8339858991841288
2995.137539839438 0.7953283851542776
2996.981590279938 0.761572928718261
2998.8256407204376 0.7329737680398943
3000.6696911609374 0.7096079044269374
3002.5137416014372 0.6914547322236607
3004.357792041937 0.6784536775839295
3006.201842482437 0.6705435265349702
3008.0458929229367 0.6676874315286446
3009.8899433634365 0.6698868130704143
3011.7339938039363 0.6771861684176845
3013.578044244436 0.6896694562053681
3015.422094684936 0.7074473419450553
3017.2661451254357 0.730633195923206
3019.1101955659356 0.7593044108924349
3020.9542460064354 0.7934446076275093
3022.798296446935 0.8328622209207155
3024.642346887435 0.8770829352432111
3026.486397327935 0.8353878198394097
3028.3304477684346 0.8873485632788884
3030.1744982089344 0.9396502884010016
3032.0185486494343 0.9894885089485843
3033.862599089934 1.0334718129498583
3035.706649530434 1.067939365609401
3037.5506999709337 1.0894816356201507
3039.3947504114335 1.0955662705182472
3041.2388008519333 1.0850796194724714
3043.082851292433 1.0585796717538662
3044.926901732933 1.0181548911732674
3046.7709521734328 0.9669481819338273
3048.6150026139326 0.9085323702963264
3050.4590530544324 0.8463419987617004
3052.303103494932 0.7832903057981364
3054.147153935432 0.7215981309943316
3055.991204375932 0.6627903476550132
3057.8352548164316 0.607791095514514
3059.6793052569315 0.5570575948996235
3061.5233556974313 0.5107132680651523
3063.367406137931 0.468660702646729
3065.211456578431 0.4306685552785516
3067.0555070189307 0.3964338401160734
3068.8995574594305 0.3656240422428485
3070.7436078999303 0.3379040368192092
3072.58765834043 0.31295221569000364
3074.43170878093 0.2904692901947634
3076.27575922143 0.27018232161169076
3078.1198096619296 0.2518457694899536
3079.9638601024294 0.23524076978235142
3081.807910542929 0.22017343851752705
3083.651960983429 0.20647270825022712
3085.496011423929 0.1939880100756711
3087.3400618644287 0.18258698595715356
3089.1841123049285 0.17215333362745253
3091.0281627454283 0.16258483439454333
3092.872213185928 0.1537915823878581
3094.716263626428 0.14569441503957392
3096.5603140669277 0.13822353417415645
3098.4043645074275 0.13131730186112303
3100.2484149479274 0.12492119314225782
3102.092465388427 0.1189868875716947
3103.936515828927 0.11347148237906671
3105.780566269427 0.10833681146729118
3107.6246167099266 0.10354885607370926
3109.4686671504264 0.09907723457111874
3111.3127175909262 0.09489476045999887
3113.156768031426 0.09097705905183022
3115.000818471926 0.0873022346436369
3116.8448689124257 0.08385058113171233
3118.6889193529255 0.08060433001418554
3120.5329697934253 0.07754743059916752
3122.377020233925 0.07466535798147997
3124.221070674425 0.07194494499066045
3126.0651211149248 0.06937423485977262
3127.9091715554246 0.06694235183116828
3129.7532219959244 0.0646393873130958
3131.597272436424 0.06245629953993056
3133.441322876924 0.0603848249775161
3135.285373317424 0.058417399961158745
3137.1294237579236 0.0565470912636385
3138.9734741984234 0.05476753446967119
3140.8175246389233 0.053072879186237
3142.661575079423 0.05145774024903135
3144.505625519923 0.049917154197338436
3146.3496759604227 0.048446540385705165
3148.1937264009225 0.04704166618329393
3150.0377768414223 0.04569861578274025
3151.881827281922 0.044413762201443316
3153.725877722422 0.0431837421109216
3155.5699281629218 0.04200543317539618
3157.4139786034216 0.04087593362015901
3159.2580290439214 0.03979254378442192
3161.102079484421 0.03875274944297299
3162.946129924921 0.03775420670672418
3164.790180365421 0.035067936504027133
3166.6342308059207 0.034171397720902906
3168.4782812464205 0.03330939229603483
3170.3223316869203 0.032480149816264035
3172.16638212742 0.03168201254284091
3174.01043256792 0.030913426899385206
3175.8544830084197 0.030172935699727503
3177.6985334489195 0.029459171043308946
3179.5425838894193 0.028770847813628736
3181.386634329919 0.028106757722121137
3183.230684770419 0.02746576384593368
3185.074735210919 0.026846795613465355
3186.9187856514186 0.026248844196296323
3188.7628360919184 0.025670958270374026
3190.6068865324182 0.025112240113080754
3192.450936972918 0.02457184200615183
3194.294987413418 0.024048962917390955
3196.1390378539177 0.023542845436784157
3197.9830882944175 0.023052772944983164
3199.8271387349173 0.022578066994246932
3201.671189175417 0.02211808488382444
3203.515239615917 0.021672217413459458
3205.3592900564167 0.02123988680021961
3207.2033404969166 0.02082054474521884
3209.0473909374164 0.0204136706380301
3210.891441377916 0.020018769887690142
3212.735491818416 0.019635372370193447
3214.579542258916 0.019263030983269362
3216.4235926994156 0.018901320300046435
3218.2676431399154 0.012449159197272597
3220.1116935804152 0.01219908210899622
3221.955744020915 0.011956435657190609
3223.799794461415 0.01172092949510109
3225.6438449019147 0.011492287264791418
3227.4878953424145 0.011270245799254858
3229.3319457829143 0.011054554376910646
3231.175996223414 0.01084497402460727
3233.020046663914 0.010641276865572931
3234.8640971044138 0.010443245509043502
3236.7081475449136 0.010250672478562442
3238.5521979854134 0.010063359676187884
3240.396248425913 0.009881117880061649
3242.240298866413 0.009703766272995414
3244.084349306913 0.009531131999912377
3245.9283997474126 0.009363049752150127
3247.7724501879125 0.009199361376783757
3249.6165006284123 0.009039915509268361
3251.460551068912 0.00888456722782874
3253.304601509412 0.008733177728141903
3255.1486519499117 0.008585614016966205
3256.9927023904115 0.008441748623470205
3258.8367528309113 0.008301459327105697
3260.680803271411 0.008164628900953208
3262.524853711911 0.00803114486954557
3264.368904152411 0.007900899280246263
3266.2129545929106 0.007773788487324756
3268.0570050334104 0.007649712947931467
3269.90105547391 0.007528577029230753
3271.74510591441 0.007410288826001766
3273.58915635491 0.007294759988064511
3275.4332067954097 0.007181905556932453
3277.2772572359095 0.007071643811133545
3279.1213076764093 0.006963896119679231
3280.965358116909 0
3282.809408557409 0
3284.6534589979087 0
3286.4975094384085 0
3288.3415598789084 0
3290.185610319408 0
3292.029660759908 0
3293.873711200408 0
3295.7177616409076 0
3297.5618120814074 0
3299.4058625219072 0
3301.249912962407 0
3303.093963402907 0
3304.9380138434067 0
3306.7820642839065 0
3308.6261147244063 0
3310.470165164906 0
3312.314215605406 0
3314.1582660459057 0
3316.0023164864056 0
3317.8463669269054 0
3319.690417367405 0
3321.534467807905 0
3323.378518248405 0
3325.2225686889046 0
3327.0666191294044 0
3328.9106695699043 0
3330.754720010404 0
3332.598770450904 0
3334.4428208914037 0
3336.2868713319035 0
3338.1309217724033 0
3339.974972212903 0
3341.819022653403 0
3343.6630730939028 0
3345.5071235344026 0
3347.3511739749024 0
3349.195224415402 0
3351.039274855902 0
3352.883325296402 0
3354.7273757369016 0
3356.5714261774015 0
3358.4154766179013 0
3360.259527058401 0
3362.103577498901 0
3363.9476279394007 0
3365.7916783799005 0
3367.6357288204003 0
3369.4797792609 0
3371.3238297014 0
3373.1678801419 0
3375.0119305823996 0
3376.8559810228994 0
3378.7000314633992 0
3380.544081903899 0
3382.388132344399 0
3384.2321827848987 0
3386.0762332253985 0
3387.9202836658983 0
3389.764334106398 0
3391.608384546898 0
3393.4524349873977 0
3395.2964854278976 0
3397.1405358683974 0
3398.984586308897 0
3400.828636749397 0
3402.672687189897 0
3404.5167376303966 0
3406.3607880708964 0
3408.2048385113962 0
3410.048888951896 0
3411.892939392396 0
3413.7369898328957 0
3415.5810402733955 0
3417.4250907138953 0
3419.269141154395 0
3421.113191594895 0
3422.9572420353948 0
3424.8012924758946 0
3426.6453429163944 0
3428.489393356894 0
3430.333443797394 0
3432.177494237894 0
3434.0215446783936 0
3435.8655951188935 0
3437.7096455593933 0
3439.553695999893 0
##END=
