##TITLE=No title given
##JCAMP-DX=5.00 $$ WebMO output
##DATA TYPE=IR SPECTRUM
##DATA CLASS=XYDATA
##DATE=Thu Oct 17 19:13:05 GMT-400 2019
##ORIGIN=WebMO
##OWNER=public domain
##SPECTROMETER/DATA SYSTEM=computed
##XUNITS=1/CM
##YUNITS=ARBITRARY UNITS
##XFACTOR=1.0
##YFACTOR=1.0
##FIRSTX=-2510.380342
##LASTX=3466.1623567675792
##FIRSTY=0
##NPOINTS=2000
##XYDATA=(X++(Y..Y))
1.0232933000094881 0
4.013059532509488 0
7.002825765009488 0
9.99259199750949 0
12.982358230009488 0
15.972124462509488 0
18.961890695009487 0
21.951656927509486 0
24.941423160009485 0
27.931189392509484 0
30.920955625009483 0
33.910721857509486 0
36.90048809000949 0
39.89025432250949 0
42.880020555009494 0
45.8697867875095 0
48.8595530200095 0
51.8493192525095 0
54.839085485009505 0
57.82885171750951 0
60.81861795000951 0
63.80838418250951 0
66.79815041500952 0
69.78791664750952 0
72.77768288000952 0
75.76744911250952 0
78.75721534500953 0
81.74698157750953 0
84.73674781000953 0
87.72651404250954 0
90.71628027500954 0
93.70604650750954 0
96.69581274000954 0
99.68557897250955 0
102.67534520500955 0
105.66511143750955 0
108.65487767000955 0
111.64464390250956 0
114.63441013500956 0
117.62417636750956 0
120.61394260000957 0
123.60370883250957 0
126.59347506500957 0
129.58324129750957 0
132.57300753000956 0
135.56277376250955 0
138.55253999500954 0
141.54230622750953 0
144.53207246000952 0
147.5218386925095 0
150.5116049250095 0
153.50137115750948 0
156.49113739000947 0
159.48090362250946 0
162.47066985500945 0
165.46043608750944 0
168.45020232000942 0
171.4399685525094 0
174.4297347850094 0
177.4195010175094 0
180.40926725000938 0
183.39903348250937 0
186.38879971500936 0
189.37856594750934 0
192.36833218000933 0
195.35809841250932 0
198.3478646450093 0
201.3376308775093 0
204.3273971100093 0
207.31716334250928 0
210.30692957500926 0
213.29669580750925 0
216.28646204000924 0
219.27622827250923 0
222.26599450500922 0
225.2557607375092 0
228.2455269700092 0
231.23529320250918 0
234.22505943500917 0
237.21482566750916 0
240.20459190000915 0
243.19435813250914 0
246.18412436500913 0
249.17389059750911 0
252.1636568300091 0
255.1534230625091 0
258.1431892950091 0
261.1329555275091 0
264.12272176000914 0
267.11248799250916 0
270.1022542250092 0
273.0920204575092 0
276.0817866900092 0
279.0715529225092 0
282.06131915500924 0
285.05108538750926 0
288.0408516200093 0
291.0306178525093 0
294.0203840850093 0
297.01015031750933 0
299.99991655000935 0
302.98968278250936 0
305.9794490150094 0
308.9692152475094 0
311.9589814800094 0
314.94874771250943 0
317.93851394500945 0
320.92828017750946 0
323.9180464100095 0
326.9078126425095 0
329.8975788750095 0
332.88734510750953 0.030275310344827586
335.87711134000955 0.031038509342013347
338.86687757250957 0.03183086309723148
341.8566438050096 0.03265387188938551
344.8464100375096 0.03350913349936276
347.8361762700096 0.03439835089278444
350.82594250250963 0.035323340616353185
353.81570873500965 0.03628604198433374
356.80547496750967 0.03728852714103371
359.7952412000097 0.03833301209575856
362.7850074325097 0.03942186883879353
365.7747736650097 0.04055763866074185
368.76453989750974 0.041743046813287894
371.75430613000975 0.04298101866746769
374.74407236250977 0.04427469754618172
377.7338385950098 0.045627464431406944
380.7236048275098 0.047042959773862573
383.7133710600098 0.04852510766435747
386.70313729250984 0.05007814266240506
389.69290352500985 0.1346525706542619
392.68266975750987 0.13845243093302165
395.6724359900099 0.14241793632537458
398.6622022225099 0.14655900794482046
401.6519684550099 0.1508863322080061
404.64173468750994 0.15541143376498373
407.63150092000996 0.16014675676477536
410.62126715251 0.1651057555733545
413.61103338501 0.1703029962336018
416.60079961751 0.17575427015944758
419.59056585001 0.1814767217952155
422.58033208251004 0.18748899225335813
425.57009831501006 0.19381138127814482
428.5598645475101 0.2004660302802575
431.5496307800101 0.2074771296609625
434.5393970125101 0.21487115421098002
437.5291632450101 0.22267713104869158
440.51892947751014 0.2309269453801585
443.50869571001016 0.23965569035106998
446.4984619425102 0.2489020684576147
449.4882281750102 0.2587088534388862
452.4779944075102 0.26912342335026096
455.4677606400102 0.2801983776942625
458.45752687251024 0.29199225416325225
461.44729310501026 0.30457036385503855
464.4370593375103 0.3180057679223669
467.4268255700103 0.33238042372135745
470.4165918025103 0.34778653490469896
473.4063580350103 0.36432814791566914
476.39612426751034 0.382123047437369
479.38589050001036 0.4013050161357111
482.3756567325104 0.4220265402859261
485.3654229650104 0.4444620636137243
488.3551891975104 0.4688119182548477
491.34495543001043 0.49530709589808425
494.33472166251045 0.5242150662250888
497.32448789501046 0.5558469066859768
500.3142541275105 0.5905660813081427
503.3040203600105 0.628799301519559
506.2937865925105 0.6710500249177437
509.28355282501053 0.7179153056357406
512.2733190575105 0.7701069100373099
515.2630852900105 0.8284778603081501
518.2528515225105 0.8940558672444532
521.2426177550104 0.9680854491234778
524.2323839875104 1.0520808598233273
527.2221502200103 1.1688463551917978
530.2119164525103 1.2792689088571971
533.2016826850103 1.4065764886484424
536.1914489175102 1.5541780115688506
539.1812151500102 1.726223755379754
542.1709813825101 1.9276977234760369
545.1607476150101 2.164427188542474
548.1505138475101 2.442886774343089
551.14028008001 2.769566283989772
554.13004631251 3.1495117631177156
557.11981254501 3.583490170788236
560.1095787775099 4.063298713027518
563.0993450100099 4.565611501552105
566.0891112425098 5.0471917796042955
569.0788774750098 5.4478029607549106
572.0686437075098 5.707205959626002
575.0584099400097 5.7926123848574225
578.0481761725097 5.717947242707576
581.0379424050096 5.5378051935632095
584.0277086375096 5.321902522456646
587.0174748700096 5.131132693456981
590.0072411025095 5.0076844216385235
592.9970073350095 4.976909759492013
595.9867735675094 5.0536434471119716
598.9765398000094 5.248118386628094
601.9663060325094 5.569809987614712
604.9560722650093 6.029026384125434
607.9458384975093 6.636178202400866
610.9356047300092 7.3981431349736555
613.9253709625092 8.310530570716038
616.9151371950092 9.344706771124484
619.9049034275091 10.430742382782487
622.8946696600091 11.444068160678382
625.884435892509 12.213201517727807
628.874202125009 12.566041376460314
631.863968357509 12.404774955543662
634.8537345900089 11.75829607234769
637.8435008225089 10.765224396510533
640.8332670550088 9.60340300372647
643.8230332875088 8.423686857398739
646.8127995200088 7.322148419009312
649.8025657525087 6.344382282024849
652.7923319850087 5.501988523995919
655.7820982175086 4.788134402812113
658.7718644500086 4.18807852887744
661.7616306825086 3.6850794066932235
664.7513969150085 3.263242677369411
667.7411631475085 2.9086411442038287
670.7309293800084 2.6095662843513074
673.7206956125084 2.3563927041290773
676.7104618450084 2.141302065131059
679.7002280775083 1.9579827086375108
682.6899943100083 1.8013540273827378
685.6797605425082 1.6673320543387453
688.6695267750082 1.5526380402867495
691.6592930075082 1.4593181960112591
694.6490592400081 1.376052904590312
697.6388254725081 1.3057494143142765
700.628591705008 1.2471276371569633
703.618357937508 1.199227790497392
706.608124170008 1.161374897902795
709.5978904025079 1.1331569267519213
712.5876566350079 1.114415370583799
715.5774228675078 1.105247790427088
718.5671891000078 1.106022423012072
721.5569553325078 1.1174053825814028
724.5467215650077 1.1404010588194609
727.5364877975077 1.176405664824612
730.5262540300076 1.227271717475538
733.5160202625076 1.2953759458987064
736.5057864950076 1.3836716879670001
739.4955527275075 1.4956838077797532
742.4853189600075 1.6353607693044883
745.4750851925074 1.8066236054669111
748.4648514250074 2.012340902166798
751.4546176575074 2.252348677897596
754.4443838900073 2.520182803957305
757.4341501225073 2.798794657658119
760.4239163550072 3.057206140150836
763.4136825875072 3.252485721166204
766.4034488200072 3.34146425754716
769.3932150525071 3.2996751736118557
772.3829812850071 3.134610130681335
775.372747517507 2.8814399424581825
778.362513750007 2.585212283275688
781.352279982507 2.284131567423275
784.3420462150069 2.002542515956176
787.3318124475069 1.752402852923905
790.3215786800068 1.5359351727322683
793.3113449125068 1.3518196226695924
796.3011111450068 1.1963576042593949
799.2908773775067 1.0653378480432352
802.2806436100067 0.9547567994884043
805.2704098425066 0.8611023817859612
808.2601760750066 0.781418111594222
811.2499423075066 0.7132692284297106
814.2397085400065 0.6247338510151117
817.2294747725065 0.5748075973957382
820.2192410050064 0.5315021947249849
823.2090072375064 0.49376600368423107
826.1987734700064 0.46074535830540103
829.1885397025063 0.43174526789057444
832.1783059350063 0.40619820181615535
835.1680721675062 0.3836394539085472
838.1578384000062 0.3636877674271336
841.1476046325062 0.34603013102740665
844.1373708650061 0.330409875563531
847.1271370975061 0.3166173917909948
850.116903330006 0.3044829464549036
853.106669562506 0.29387120198219874
856.096435795006 0.28467714834745456
859.0862020275059 0.27682324029355704
862.0759682600059 0.27025760420627004
865.0657344925058 0.2649532412162966
868.0555007250058 0.26090821059053165
871.0452669575058 0.17612151425836148
874.0350331900057 0.17667845930411807
877.0247994225057 0.17858624340376072
880.0145656550056 0.1819705620737315
883.0043318875056 0.24887417439952064
885.9940981200056 0.25733320206893984
888.9838643525055 0.2680074787183398
891.9736305850055 0.281265082448848
894.9633968175054 0.2975683406357302
897.9531630500054 0.31749024825178884
900.9429292825054 0.3417272025310085
903.9326955150053 0.37109874103078366
906.9224617475053 0.4065152842224661
909.9122279800052 0.4488781765772408
912.9019942125052 0.4988516489902907
915.8917604450052 0.5564217404529426
918.8815266775051 0.6201680867147122
921.8712929100051 0.6863089458422124
924.861059142505 0.7632411574868742
927.850825375005 0.8112242713234574
930.840591607505 0.8355649682999357
933.8303578400049 0.830825708186268
936.8201240725049 0.7986948311549065
939.8098903050048 0.7470326339105412
942.7996565375048 0.6859021007325877
945.7894227700048 0.6238409368814724
948.7791890025047 0.5662972971993464
951.7689552350047 0.5158733916081154
954.7587214675046 0.4732549344117554
957.7484877000046 0.4380885543532803
960.7382539325046 0.4095753639920906
963.7280201650045 0.38680448972731074
966.7177863975045 0.3689141497300994
969.7075526300044 0.3551554591802068
972.6973188625044 0.34490736475113837
975.6870850950044 0.3376698618711858
978.6768513275043 0.33304941682331757
981.6666175600043 0.3307431768489212
984.6563837925042 0.3305247633807679
987.6461500250042 0.33223259239323555
990.6359162575042 0.33576079509150203
993.6256824900041 0.34105238244395353
996.6154487225041 0.34809398959959764
999.605214955004 0.35691112070031356
1002.594981187504 0.3675620681786932
1005.584747420004 0.38012737202385166
1008.5745136525039 0.3739680872285024
1011.5642798850039 0.3910762743225652
1014.5540461175038 0.43800592594313525
1017.5438123500038 0.45956259077659783
1020.5335785825038 0.48246415966409634
1023.5233448150037 0.5060719941003144
1026.5131110475038 0.529770514857561
1029.5028772800038 0.5533153462089294
1032.4926435125037 0.5770789877514648
1035.4824097450037 0.6019785881981903
1038.4721759775036 0.6291590423014605
1041.4619422100036 0.6596974476428574
1044.4517084425036 0.6944861776412016
1047.4414746750035 0.7342660483848965
1050.4312409075035 0.779718684849194
1053.4210071400034 0.8315587287983695
1056.4107733725034 0.8906080718732676
1059.4005396050034 0.9578554699798641
1062.3903058375033 1.034510501004311
1065.3800720700033 1.1220603142489007
1068.3698383025032 1.2223360333586515
1071.3596045350032 1.3375946113217072
1074.3493707675032 1.4706215043800002
1077.3391370000031 1.6248593159571836
1080.328903232503 1.8045668224575637
1083.318669465003 2.0150102298125834
1086.308435697503 2.262681654234089
1089.298201930003 2.555523904196299
1092.287968162503 2.903106663627407
1095.2777343950029 3.3166310449934437
1098.2675006275028 3.8085112567599397
1101.2572668600028 4.391060947850293
1104.2470330925028 5.0734851699483245
1107.2367993250027 5.85605344390244
1110.2265655575027 6.720473500973177
1113.2163317900026 7.617266057036458
1116.2060980225026 8.455917829414577
1119.1958642550026 9.1107521234648
1122.1856304875025 9.455565687980707
1125.1753967200025 9.419604895615402
1128.1651629525024 9.026763035665017
1131.1549291850024 8.3830024603574
1134.1446954175024 7.623833249004989
1137.1344616500023 6.864944427820825
1140.1242278825023 6.181383075397341
1143.1139941150022 5.610452521975799
1146.1037603475022 5.163273442976784
1149.0935265800022 4.834958346323478
1152.0832928125021 4.6100873319752615
1155.073059045002 4.463997720760057
1158.062825277502 4.362474285357748
1161.052591510002 4.264031819310781
1164.042357742502 4.128654181904308
1167.032123975002 3.931514245341554
1170.0218902075019 3.6724421655530026
1173.0116564400018 3.367964019136059
1176.0014226725018 3.0567080445234307
1178.9911889050018 2.7589767848100673
1181.9809551375017 2.490316681198178
1184.9707213700017 2.2574711646551946
1187.9604876025016 2.061339672965516
1190.9502538350016 1.899788497820252
1193.9400200675016 1.769551979452633
1196.9297863000015 1.6672996648607286
1199.9195525325015 1.593001240805477
1202.9093187650014 1.5388267118731709
1205.8990849975014 1.5060836338723267
1208.8888512300014 1.4940553095542597
1211.8786174625013 1.5027840252763411
1214.8683836950013 1.5330892747440539
1217.8581499275012 1.5866045892872414
1220.8479161600012 1.6658260802988831
1223.8376823925012 1.7741478820867795
1226.8274486250011 1.9158279923913608
1229.817214857501 2.0957700161358246
1232.806981090001 2.318906811956367
1235.796747322501 2.588825199632783
1238.786513555001 2.9051245843201348
1241.776279787501 3.2590672974203736
1244.7660460200009 3.6278798031863797
1247.7558122525008 3.970303323177743
1250.7455784850008 4.229215105308121
1253.7353447175008 4.347190902953826
1256.7251109500007 4.291666478956909
1259.7148771825007 4.072547118473831
1262.7046434150006 3.736520672808995
1265.6944096475006 3.3434038371074295
1268.6841758800006 2.943549458963396
1271.6739421125005 2.7187393989982844
1274.6637083450005 2.390297625540548
1277.6534745775004 2.1072524987386254
1280.6432408100004 1.8673475502905654
1283.6330070425004 1.6656624411334917
1286.6227732750003 1.4965976836346433
1289.6125395075003 1.3548314610694274
1292.6023057400002 1.2356963888777939
1295.5920719725002 1.135264485116855
1298.5818382050002 1.0503019818170898
1301.5716044375001 0.9781767424831364
1304.56137067 0.916757304331478
1307.5511369025 0.8643200038864057
1310.540903135 0.8194696971951225
1313.5306693675 0.7810746392418233
1316.5204356 0.7482141008345625
1319.5102018325 0.7201367050294146
1322.4999680649998 0.6962274766634562
1325.4897342974998 0.6759818416674681
1328.4795005299998 0.6589851150564855
1331.4692667624997 0.6448963048155558
1334.4590329949997 0.6334353072518204
1337.4487992274996 0.6243727728186961
1340.4385654599996 0.6175220836154125
1343.4283316924996 0.6127330112368208
1346.4180979249995 0.609886723185293
1349.4078641574995 0.6088918837343271
1352.3976303899994 0.6096816560323239
1355.3873966224994 0.6122114604672838
1358.3771628549994 0.6164573831665697
1361.3669290874993 0.6224151606150155
1364.3566953199993 0.5689133161007578
1367.3464615524992 0.5798369788677052
1370.3362277849992 0.5925224712436217
1373.3259940174992 0.6070468652644273
1376.3157602499991 0.6235095259893237
1379.305526482499 0.6420344378815762
1382.295292714999 0.6627733058031053
1385.285058947499 0.6859095782254735
1388.274825179999 0.711663580504508
1391.264591412499 0.740298986040114
1394.254357644999 0.7721308821783983
1397.2441238774989 0.8075356811043439
1400.2338901099988 0.8469630305736311
1403.2236563424988 0.8909495858807303
1406.2134225749987 0.925017932207879
1409.2031888074987 0.9805186668757653
1412.1929550399987 1.0428331238205906
1415.1827212724986 1.1129475490436147
1418.1724875049986 1.1919070904502849
1421.1622537374985 1.2806885105955106
1424.1520199699985 1.379945561150722
1427.1417862024985 1.4895824744812833
1430.1315524349984 1.6081931106940939
1433.1213186674984 1.7326324715269266
1436.1110848999983 1.8583170684297574
1439.1008511324983 1.9808560190198556
1442.0906173649983 2.0986731960648766
1445.0803835974982 2.214869391127496
1448.0701498299982 2.336718021732371
1451.0599160624981 2.473343684292884
1454.049682294998 2.633573211451257
1457.039448527498 2.8251374130543434
1460.029214759998 3.0550152584377406
1463.018980992498 3.33024697311052
1466.008747224998 3.6587774651419043
1468.998513457498 4.050198764078673
1471.9882796899979 4.516410042270287
1474.9780459224978 5.072236284205533
1477.9678121549978 5.736000854276143
1480.9575783874977 6.529949172666999
1483.9473446199977 7.480243908580057
1486.9371108524977 8.615935723076403
1489.9268770849976 9.965777360860368
1492.9166433174976 11.550961371715337
1495.9064095499975 13.343547154194153
1498.8961757824975 15.354070623360297
1501.8859420149975 17.43394310068182
1504.8757082474974 19.363888912043567
1507.8654744799974 20.839752989991645
1510.8552407124973 21.555645984197227
1513.8450069449973 21.338355531719483
1516.8347731774973 20.24141763004208
1519.8245394099972 18.514754475084764
1522.8143056424972 16.478346220884056
1525.8040718749971 14.403581836589586
1528.793838107497 12.463470548888365
1531.783604339997 10.740389523341591
1534.773370572497 9.25565803581842
1537.763136804997 8.005110490162174
1540.752903037497 6.947546093055486
1543.742669269997 6.06069882218911
1546.7324355024969 5.316290194661275
1549.7222017349968 4.689514150051483
1552.7119679674968 4.159492762960706
1555.7017341999967 3.7090364263266484
1558.6915004324967 3.324150608817914
1561.6812666649967 2.9934976227481034
1564.6710328974966 2.707901335311297
1567.6607991299966 2.45992427833961
1570.6505653624965 2.2435201856085323
1573.6403315949965 2.053754372933056
1576.6300978274965 1.8865811875866823
1579.6198640599964 1.7386678109417844
1582.6096302924964 1.6072549925780708
1585.5993965249963 1.490046904122711
1588.5891627574963 1.3851238365154461
1591.5789289899963 1.290872785881177
1594.5686952224962 1.2059320540790546
1597.5584614549962 1.1291468497023862
1600.5482276874961 1.0595335483059722
1603.537993919996 0.9962507928337546
1606.527760152496 0.9385760185854469
1609.517526384996 0.8858862981215663
1612.507292617496 0.8376426414438948
1615.497058849996 0.7933770721510309
1618.486825082496 0.7526819438200626
1621.4765913149959 0.7152010723786183
1624.4663575474958 0.6806223471616248
1627.4561237799958 0.6486715513731505
1630.4458900124957 0.6191071761229612
1633.4356562449957 0.5917160543818661
1636.4254224774957 0.5663096746250711
1639.4151887099956 0.5427210605458422
1642.4049549424956 0.5208021245142471
1645.3947211749955 0.5004214195804454
1648.3844874074955 0.48146222867435445
1651.3742536399955 0.4638209409329479
1654.3640198724954 0.44740567434292533
1657.3537861049954 0.4321351115563806
1660.3435523374953 0.41793752217052765
1663.3333185699953 0.404749950244947
1666.3230848024953 0.39251755059902743
1669.3128510349952 0.3811930616924476
1672.3026172674952 0.3707364068250748
1675.2923834999951 0.36111441917085857
1678.282149732495 0.35230068995359387
1681.271915964995 0.3414605168344348
1684.261682197495 0.33427912964781487
1687.251448429995 0.3278653222074682
1690.241214662495 0.32222098888626405
1693.230980894995 0.3173561477523785
1696.2207471274949 0.31328977950884396
1699.2105133599948 0.3100509386572684
1702.2002795924948 0.3076801973752051
1705.1900458249947 0.30623150102184327
1708.1798120574947 0.30577453788686126
1711.1695782899947 0.3063977562769916
1714.1593445224946 0.3082122010574187
1717.1491107549946 0.3113563912045278
1720.1388769874945 0.31600252133854934
1723.1286432199945 0.32236434379879325
1726.1184094524945 0.3307071701947916
1729.1081756849944 0.34136051070570306
1732.0979419174944 0.3547339156763334
1735.0877081499943 0.371336529288369
1738.0774743824943 0.39180056449817857
1741.0672406149943 0.4169080659148483
1744.0570068474942 0.4476183577419851
1747.0467730799942 0.4850893661269671
1750.0365393124941 0.5306775688242734
1753.026305544994 0.43883709006603716
1756.016071777494 0.5087023464067323
1759.005838009994 0.5906392452141943
1761.995604242494 0.6846340943400009
1764.985370474994 0.7883660861768546
1767.975136707494 0.8956425377849179
1770.9649029399939 0.995177259977306
1773.9546691724938 1.071313048688681
1776.9444354049938 1.108302839147354
1779.9342016374937 1.0972304489589286
1782.9239678699937 1.040854257925677
1785.9137341024937 0.952043974312085
1788.9035003349936 0.8472762379859137
1791.8932665674936 0.7405255979125445
1794.8830327999935 0.6407010092903634
1797.8727990324935 0.5520447785175188
1800.8625652649935 0.4756553160245897
1803.8523314974934 0.4109245462881343
1806.8420977299934 0.3565101175174589
1809.8318639624933 0.3108813960093266
1812.8216301949933 0.2725827490039505
1815.8113964274933 0.2403372818238376
1818.8011626599932 0.21307030903041155
1821.7909288924932 0.18989701262721972
1824.7806951249931 0.1700970507573488
1827.770461357493 0.1530868491450793
1830.760227589993 0.13839410294732826
1833.749993822493 0.12563600573029107
1836.739760054993 0.11450136162160252
1839.729526287493 0.1047361901837005
1842.719292519993 0.09613226935847516
1845.7090587524929 0.08851806477587967
1848.6988249849928 0.08175156035412971
1851.6885912174928 0.07571458800895671
1854.6783574499927 0.07030833334010382
1857.6681236824927 0.06544976219948502
1860.6578899149927 0.06106876869416898
1863.6476561474926 0.057105889438399705
1866.6374223799926 0.053510463517316476
1869.6271886124925 0.050239144509044605
1872.6169548449925 0.047254691677661234
1875.6067210774925 0.044524983462862676
1878.5964873099924 0.04202220874350439
1881.5862535424924 0.039722200893512354
1884.5760197749923 0.03760388703707434
1887.5657860074923 0.03564883064862918
1890.5555522399923 0.03384085011573228
1893.5453184724922 0.0321656993816921
1896.5350847049922 0.03061079953262414
1899.5248509374921 0.02916501236012937
1902.514617169992 0.02781844864603453
1905.504383402492 0.026562305279071517
1908.494149634992 0.025388726401559425
1911.483915867492 0.024290684656131017
1914.473682099992 0.02326187930402889
1917.463448332492 0.02229664855300956
1920.4532145649919 0.02138989389214149
1923.4429807974918 0.0205370146044588
1926.4327470299918 0.01973385093358313
1929.4225132624917 0.018976634630498958
1932.4122794949917 0.018261945812310915
1935.4020457274917 0.017586675234485746
1938.3918119599916 0.016947991218535692
1941.3815781924916 0.01634331059373567
1944.3713444249915 0.015770273108622036
1947.3611106574915 0.015226718849193252
1950.3508768899915 0.014710668268749373
1953.3406431224914 0.014220304491462794
1956.3304093549914 0.01375395759993339
1959.3201755874913 0.013310090657672762
1962.3099418199913 0.012887287251931626
1965.2997080524913 0.012484240371558404
1968.2894742849912 0.012099742459499387
1971.2792405174912 0.01173267650081976
1974.2690067499911 0.01138200802531854
1977.258772982491 0.011046777919408451
1980.248539214991 0.010726095955334851
1983.238305447491 0.010419134957348985
1986.228071679991 0.010125125534410024
1989.217837912491 0.00984335131760201
1992.207604144991 0.009573144647912804
1995.1973703774909 0.009313882666499186
1998.1871366099908 0.00906498376519555
2001.1769028424908 0.00882590435993206
2004.1666690749908 0.008596135954012978
2007.1564353074907 0.008375202461952603
2010.1462015399907 0.008162657767848275
2013.1359677724906 0.007958083495149577
2016.1257340049906 0.007761086967213671
2019.1155002374906 0
2022.1052664699905 0
2025.0950327024905 0
2028.0847989349904 0
2031.0745651674904 0
2034.0643313999904 0
2037.0540976324903 0
2040.0438638649903 0
2043.0336300974902 0
2046.0233963299902 0
2049.0131625624904 0
2052.0029287949906 0
2054.9926950274908 0
2057.982461259991 0
2060.972227492491 0
2063.9619937249913 0
2066.9517599574915 0
2069.9415261899917 0
2072.931292422492 0
2075.921058654992 0
2078.9108248874923 0
2081.9005911199924 0
2084.8903573524926 0
2087.880123584993 0
2090.869889817493 0
2093.859656049993 0
2096.8494222824934 0
2099.8391885149936 0
2102.8289547474938 0
2105.818720979994 0
2108.808487212494 0
2111.7982534449943 0
2114.7880196774945 0
2117.7777859099947 0
2120.767552142495 0
2123.757318374995 0
2126.7470846074953 0
2129.7368508399954 0
2132.7266170724956 0
2135.716383304996 0
2138.706149537496 0
2141.695915769996 0
2144.6856820024964 0
2147.6754482349966 0
2150.6652144674968 0
2153.654980699997 0
2156.644746932497 0
2159.6345131649973 0
2162.6242793974975 0
2165.6140456299977 0
2168.603811862498 0
2171.593578094998 0
2174.5833443274983 0
2177.5731105599984 0
2180.5628767924986 0
2183.552643024999 0
2186.542409257499 0
2189.532175489999 0
2192.5219417224994 0
2195.5117079549996 0
2198.5014741874998 0
2201.49124042 0
2204.4810066525 0
2207.4707728850003 0
2210.4605391175005 0
2213.4503053500007 0
2216.440071582501 0
2219.429837815001 0
2222.4196040475013 0
2225.4093702800014 0
2228.3991365125016 0
2231.388902745002 0
2234.378668977502 0
2237.368435210002 0
2240.3582014425024 0
2243.3479676750026 0
2246.3377339075028 0
2249.327500140003 0
2252.317266372503 0
2255.3070326050033 0
2258.2967988375035 0
2261.2865650700037 0
2264.276331302504 0
2267.266097535004 0
2270.2558637675043 0
2273.2456300000044 0
2276.2353962325046 0
2279.225162465005 0
2282.214928697505 0
2285.204694930005 0
2288.1944611625054 0
2291.1842273950056 0
2294.1739936275058 0
2297.163759860006 0
2300.153526092506 0
2303.1432923250063 0
2306.1330585575065 0
2309.1228247900067 0
2312.112591022507 0
2315.102357255007 0
2318.0921234875073 0
2321.0818897200074 0
2324.0716559525076 0
2327.061422185008 0
2330.051188417508 0
2333.040954650008 0
2336.0307208825084 0
2339.0204871150086 0
2342.0102533475088 0
2345.000019580009 0
2347.989785812509 0
2350.9795520450093 0
2353.9693182775095 0
2356.9590845100097 0
2359.94885074251 0
2362.93861697501 0
2365.9283832075103 0
2368.9181494400104 0
2371.9079156725106 0
2374.897681905011 0
2377.887448137511 0
2380.877214370011 0
2383.8669806025114 0
2386.8567468350116 0
2389.8465130675118 0
2392.836279300012 0
2395.826045532512 0
2398.8158117650123 0
2401.8055779975125 0
2404.7953442300127 0
2407.785110462513 0
2410.774876695013 0
2413.7646429275133 0
2416.7544091600134 0
2419.7441753925136 0
2422.733941625014 0
2425.723707857514 0
2428.713474090014 0
2431.7032403225144 0
2434.6930065550146 0
2437.6827727875148 0
2440.672539020015 0
2443.662305252515 0
2446.6520714850153 0
2449.6418377175155 0
2452.6316039500157 0
2455.621370182516 0
2458.611136415016 0
2461.6009026475162 0
2464.5906688800164 0
2467.5804351125166 0
2470.570201345017 0
2473.559967577517 0
2476.549733810017 0
2479.5395000425174 0
2482.5292662750176 0
2485.5190325075177 0
2488.508798740018 0
2491.498564972518 0
2494.4883312050183 0
2497.4780974375185 0
2500.4678636700187 0
2503.457629902519 0
2506.447396135019 0
2509.4371623675192 0
2512.4269286000194 0
2515.4166948325196 0
2518.40646106502 0
2521.39622729752 0
2524.38599353002 0
2527.3757597625204 0
2530.3655259950206 0
2533.3552922275207 0
2536.345058460021 0
2539.334824692521 0
2542.3245909250213 0
2545.3143571575215 0
2548.3041233900217 0
2551.293889622522 0
2554.283655855022 0
2557.2734220875222 0
2560.2631883200224 0
2563.2529545525226 0
2566.242720785023 0
2569.232487017523 0
2572.222253250023 0
2575.2120194825234 0
2578.2017857150236 0
2581.1915519475237 0
2584.181318180024 0
2587.171084412524 0
2590.1608506450243 0
2593.1506168775245 0
2596.1403831100247 0
2599.130149342525 0
2602.119915575025 0
2605.1096818075252 0
2608.0994480400254 0
2611.0892142725256 0
2614.078980505026 0
2617.068746737526 0
2620.058512970026 0
2623.0482792025264 0
2626.0380454350266 0
2629.0278116675267 0
2632.017577900027 0
2635.007344132527 0
2637.9971103650273 0
2640.9868765975275 0
2643.9766428300277 0
2646.966409062528 0
2649.956175295028 0
2652.9459415275282 0
2655.9357077600284 0
2658.9254739925286 0
2661.915240225029 0
2664.905006457529 0
2667.894772690029 0
2670.8845389225294 0
2673.8743051550296 0
2676.8640713875297 0
2679.85383762003 0
2682.84360385253 0
2685.8333700850303 0
2688.8231363175305 0
2691.8129025500307 0
2694.802668782531 0
2697.792435015031 0
2700.7822012475312 0
2703.7719674800314 0
2706.7617337125316 0
2709.751499945032 0
2712.741266177532 0
2715.731032410032 0
2718.7207986425324 0
2721.7105648750326 0
2724.7003311075327 0
2727.690097340033 0
2730.679863572533 0
2733.6696298050333 0
2736.6593960375335 0
2739.6491622700337 0
2742.638928502534 0
2745.628694735034 0.0005804137931034483
2748.6184609675342 0.0005950452277544573
2751.6082272000344 0.0006102355938748333
2754.5979934325346 0.000626013653599769
2757.587759665035 0.0006424100382937244
2760.577525897535 0.0006594573958379105
2763.567292130035 0.0006771905515982777
2766.5570583625354 0.0006956466845413036
2769.5468245950356 0.0007148655201437467
2772.5365908275357 0.0007348895419458866
2775.526357060036 0.0007557642238293447
2778.516123292536 0.0007775382853646753
2781.5058895250363 0.020727160524599813
2784.4956557575365 0.02125322361771232
2787.4854219900367 0.02179954404149224
2790.475188222537 0.022367174081472613
2793.464954455037 0.022957235172310138
2796.4547206875372 0.023570923417885647
2799.4444869200374 0.024209515632029735
2802.4342531525376 0.024874375956722625
2805.424019385038 0.02556696312169428
2808.413785617538 0.026288838417420468
2811.403551850038 0.027041674462728066
2814.3933180825384 0.027827264858769848
2817.3830843150386 0.028647534833220627
2820.3728505475387 0.029504552992434253
2823.362616780039 0.030400544315282878
2826.352383012539 0.03133790454082966
2829.3421492450393 0.03823673336465993
2832.3319154775395 0.03941395567692222
2835.3216817100397 0.04064662577098059
2838.31144794254 0.041938294036729926
2841.30121417504 0.04329280054945297
2844.2909804075402 0.04471430398202768
2847.2807466400404 0.046207313948978854
2850.2705128725406 0.04777672725701551
2853.260279105041 0.049427868611998674
2856.250045337541 0.051166536421124634
2859.239811570041 0.0529990544342131
2862.2295778025414 0.05493233009270081
2865.2193440350416 0.0569739206033585
2868.2091102675417 0.05913210793093164
2871.198876500042 0.0614159841161067
2874.188642732542 0.0638355485801892
2877.1784089650423 0.06640181938532609
2880.1681751975425 0.06912696079111551
2883.1579414300427 0.07202442990022263
2886.147707662543 0.07510914573632102
2889.137473895043 0.07839768477154925
2892.1272401275432 0.08190850774850744
2895.1170063600434 0.08566222366287421
2898.1067725925436 0.08968189803720919
2901.096538825044 0.09399341418883678
2904.086305057544 0.0986258981577118
2907.076071290044 0.10361222042054449
2910.0658375225444 0.10898959061265805
2913.0556037550446 0.11480026538588274
2916.0453699875447 0.1210923944756756
2919.035136220045 0.12792103632097504
2922.024902452545 0.1353493825349842
2925.0146686850453 0.14345024059971623
2928.0044349175455 0.15230783685320828
2930.9942011500457 0.16202001767392293
2933.983967382546 0.17270094614264667
2936.973733615046 0.18448441434787666
2939.9634998475462 0.1975279167544682
2942.9532660800464 0.21201765400909311
2945.9430323125466 0.22817465016951216
2948.932798545047 0.24626214966562332
2951.922564777547 0.2665943721405967
2954.912331010047 0.28954646335180645
2957.9020972425474 0.31556494223461884
2960.8918634750476 0.34517686963596167
2963.8816297075477 0.3789940488780212
2966.871395940048 0.4177056956821472
2969.861162172548 0.4620501762865511
2972.8509284050483 0.5127579708330469
2975.8406946375485 0.5704748451130021
2978.8304608700487 0.635720758895675
2981.820227102549 0.709006445260396
2984.809993335049 0.7912284343224475
2987.7997595675492 0.8842661043584289
2990.7895258000494 0.9914055097357695
2993.7792920325496 1.11722211126781
2996.76905826505 1.2669525900885608
2999.75882449755 1.4456081239428333
3002.74859073005 1.6568105550981085
3005.7383569625504 1.9009450412980302
3008.7281231950506 2.1721739917207765
3011.7178894275507 2.454478326066696
3014.707655660051 2.7185578162259034
3017.697421892551 2.9237606919550614
3020.6871881250513 3.0292559357980138
3023.6769543575515 3.0120659787852726
3026.6667205900517 2.8796902280378
3029.656486822552 2.666053709428545
3032.646253055052 2.414596952825131
3035.6360192875522 2.1623952636731265
3038.6257855200524 1.9335013055909167
3041.6155517525526 1.7399817708798127
3044.605317985053 1.5858386912469558
3047.595084217553 1.4706231021842102
3050.584850450053 1.3916759055516128
3053.5746166825534 1.3449897530698534
3056.5643829150536 1.3249715742545431
3059.5541491475537 1.3235027428024104
3062.543915380054 1.3290556283754067
3065.533681612554 1.32721961570268
3068.5234478450543 1.3039436965241604
3071.5132140775545 1.2508132053029493
3074.5029803100547 1.1687269845206778
3077.492746542555 1.066632389094298
3080.482512775055 0.9564514055286288
3083.4722790075552 0.848321462273109
3086.4620452400554 0.7485842240605147
3089.4518114725556 0.6600702768512323
3092.441577705056 0.58325735838208
3095.431343937556 0.5173665362443802
3098.421110170056 0.46110190020618985
3101.4108764025564 0.4130632352009084
3104.4006426350566 0.3719420688086732
3107.3904088675567 0.33659588318746425
3110.380175100057 0.3060614522998496
3113.369941332557 0.27954141787775644
3116.3597075650573 0.2563815078718738
3119.3494737975575 0.2360465439923377
3122.3392400300577 0.2180986216387601
3125.329006262558 0.20217854323757062
3128.318772495058 0.18799055361440203
3131.3085387275582 0.1752900186012588
3134.2983049600584 0.1638735728356396
3137.2880711925586 0.15357127410838864
3140.277837425059 0.14424036028617704
3143.267603657559 0.1357602745516147
3146.257369890059 0.12802869027696553
3149.2471361225594 0.12095832298992817
3152.2369023550596 0.11447436274029998
3155.2266685875597 0.108512396661239
3158.21643482006 0.10301672012944497
3161.20620105256 0.09793895718595413
3164.1959672850603 0.09323692812803423
3167.1857335175605 0.08887371553497204
3170.1754997500607 0.08481689033369397
3173.165265982561 0.08103786753771106
3176.155032215061 0.07751136754047887
3179.1447984475612 0.07421496372283996
3182.1345646800614 0.07112870095798692
3185.1243309125616 0.0682347726063577
3188.114097145062 0.06551724597048858
3191.103863377562 0.06296182806651981
3194.093629610062 0.06055566507252827
3197.0833958425624 0.05828717001707133
3200.0731620750626 0.056145874238295826
3203.0629283075627 0.054122298924314124
3206.052694540063 0.05220784367786423
3209.042460772563 0.050394689562690706
3212.0322270050633 0.0486757145092247
3215.0219932375635 0.047044419301594156
3218.0117594700637 0.04549486265144785
3221.001525702564 0.04402160409817217
3223.991291935064 0.04261965366909644
3226.9810581675642 0.040710455577526464
3229.9708244000644 0.039451603466402835
3232.9605906325646 0.038250876917663997
3235.950356865065 0.0371047139905847
3238.940123097565 0.03600982418564104
3241.929889330065 0.03496316377140318
3244.9196555625654 0.033961913709222205
3247.9094217950656 0.03300345986574914
3250.8991880275657 0.03208537524452685
3253.888954260066 0.031205404003078075
3256.878720492566 0.030361447052034373
3259.8684867250663 0.029551549058699382
3262.8582529575665 0.00906815751311522
3265.8480191900667 0.008797126689883486
3268.837785422567 0.00853802814546199
3271.827551655067 0.008290173824955399
3274.8173178875672 0.008052924406212442
3277.8070841200674 0.007825685228743927
3280.7968503525676 0.007607902612733758
3283.786616585068 0.0073990605261336
3286.776382817568 0.007198677562838173
3289.766149050068 0.00700630419929194
3292.7559152825684 0.006821520300671737
3295.7456815150686 0.006643932851101643
3298.7354477475687 0.006473173885252209
3301.725213980069 0.006308898601212784
3304.714980212569 0.006150783636751514
3307.7047464450693 0.0059985254930334355
3310.6945126775695 0
3313.6842789100697 0
3316.67404514257 0
3319.66381137507 0
3322.6535776075702 0
3325.6433438400704 0
3328.6331100725706 0
3331.622876305071 0
3334.612642537571 0
3337.602408770071 0
3340.5921750025714 0
3343.5819412350716 0
3346.5717074675717 0
3349.561473700072 0
3352.551239932572 0
3355.5410061650723 0
3358.5307723975725 0
3361.5205386300727 0
3364.510304862573 0
3367.500071095073 0
3370.4898373275732 0
3373.4796035600734 0
3376.4693697925736 0
3379.459136025074 0
3382.448902257574 0
3385.438668490074 0
3388.4284347225744 0
3391.4182009550746 0
3394.4079671875747 0
3397.397733420075 0
3400.387499652575 0
3403.3772658850753 0
3406.3670321175755 0
3409.3567983500757 0
3412.346564582576 0
3415.336330815076 0
3418.3260970475762 0
3421.3158632800764 0
3424.3056295125766 0
3427.295395745077 0
3430.285161977577 0
3433.274928210077 0
3436.2646944425774 0
3439.2544606750776 0
3442.2442269075777 0
3445.233993140078 0
3448.223759372578 0
3451.2135256050783 0
3454.2032918375785 0
3457.1930580700787 0
3460.182824302579 0
3463.172590535079 0
3466.1623567675792 0
##END=
